# Matter power spectrum P(k) at redshift z=0
# for k=1.03961e-05 to 14.2679 h/Mpc,
# number of wavenumbers equal to 735
#    1:k (h/Mpc)              2:P (Mpc/h)^3        
       1.039609977471e-05       5.105374639418e+01 
       2.319095722733e-05       1.107770942580e+02 
       3.603025423457e-05       1.695075949041e+02 
       4.894807484163e-05       2.278532095110e+02 
       6.197905976575e-05       2.861626137666e+02 
       7.515871117816e-05       3.446986576024e+02 
       8.852370711232e-05       4.036870883827e+02 
       1.021122296285e-04       4.633365039029e+02 
       1.159643108966e-04       5.238486175944e+02 
       1.301222013934e-04       5.854244847857e+02 
       1.446307644153e-04       6.482688335306e+02 
       1.595379010616e-04       7.125934496208e+02 
       1.748950096763e-04       7.786200682856e+02 
       1.907574834033e-04       8.465830233529e+02 
       2.071852489065e-04       9.167317954426e+02 
       2.242433483185e-04       9.893335214056e+02 
       2.420025649508e-04       1.064675533746e+03 
       2.605400910284e-04       1.143067907010e+03 
       2.799402324436e-04       1.224846031364e+03 
       3.002951409599e-04       1.310373145260e+03 
       3.217055580821e-04       1.400042773431e+03 
       3.442815465670e-04       1.494280941915e+03 
       3.681431749122e-04       1.593548015857e+03 
       3.934211068863e-04       1.698339964636e+03 
       4.202570322041e-04       1.809188745251e+03 
       4.488038562500e-04       1.926661490651e+03 
       4.792255474388e-04       2.051358045657e+03 
       5.116965225900e-04       2.183906434535e+03 
       5.464004372002e-04       2.324955702788e+03 
       5.835282439696e-04       2.475165669852e+03 
       6.232753961265e-04       2.635193190152e+03 
       6.658381094595e-04       2.805674761681e+03 
       7.114086650089e-04       2.987205521543e+03 
       7.601698358072e-04       3.180315287995e+03 
       8.122886513773e-04       3.385442694979e+03 
       8.679098580840e-04       3.602909125610e+03 
       9.271495658526e-04       3.832894583463e+03 
       9.900896583778e-04       4.075417977154e+03 
       1.056773551527e-03       4.330324168262e+03 
       1.127203792618e-03       4.597279634104e+03 
       1.201341804715e-03       4.875777697034e+03 
       1.279109825853e-03       5.165153410084e+03 
       1.360394825218e-03       5.464594038460e+03 
       1.445053953976e-03       5.773173079971e+03 
       1.532920951564e-03       6.089934790733e+03 
       1.623812896495e-03       6.413851855967e+03 
       1.717536753543e-03       6.743882612965e+03 
       1.813895296106e-03       7.078996679245e+03 
       1.912692136122e-03       7.418196014035e+03 
       2.013735741420e-03       7.760530899617e+03 
       2.116842440477e-03       8.105111377807e+03 
       2.221838498128e-03       8.451114131320e+03 
       2.328561393747e-03       8.797786551489e+03 
       2.436860452076e-03       9.144446266573e+03 
       2.546596974938e-03       9.490480451784e+03 
       2.657644007469e-03       9.835341072089e+03 
       2.769885851963e-03       1.017854359285e+04 
       2.883217420278e-03       1.051965916949e+04 
       2.997543494897e-03       1.085831233357e+04 
       3.112777950577e-03       1.119417457209e+04 
       3.228842973503e-03       1.152696022193e+04 
       3.345668303031e-03       1.185642232214e+04 
       3.463190512065e-03       1.218234652631e+04 
       3.581352335409e-03       1.250454905394e+04 
       3.700102050656e-03       1.282287607118e+04 
       3.819392912821e-03       1.313719381813e+04 
       3.939182641726e-03       1.344739345765e+04 
       4.059432959690e-03       1.375338072268e+04 
       4.180109176307e-03       1.405508281249e+04 
       4.301179816603e-03       1.435243700563e+04 
       4.422616288785e-03       1.464539857943e+04 
       4.544392587817e-03       1.493392685060e+04 
       4.666485031201e-03       1.521799950220e+04 
       4.788872023608e-03       1.549759139815e+04 
       4.911533847241e-03       1.577269104587e+04 
       5.034452475099e-03       1.604332318419e+04 
       5.157611404580e-03       1.630946528503e+04 
       5.280995509139e-03       1.657113574473e+04 
       5.404590905946e-03       1.682834258514e+04 
       5.528384837713e-03       1.708109885438e+04 
       5.652365567099e-03       1.732942613002e+04 
       5.776522282237e-03       1.757334874920e+04 
       5.900845012137e-03       1.781288454412e+04 
       6.025324550842e-03       1.804807149968e+04 
       6.149952389355e-03       1.827893502218e+04 
       6.274720654468e-03       1.850550177438e+04 
       6.399622053729e-03       1.872781546401e+04 
       6.524649825870e-03       1.894590145078e+04 
       6.649797696099e-03       1.915979389878e+04 
       6.775059835734e-03       1.936954160864e+04 
       6.900430825703e-03       1.957517267781e+04 
       7.025905623511e-03       1.977672335991e+04 
       7.151479533310e-03       1.997424488286e+04 
       7.277148178727e-03       2.016776057290e+04 
       7.402907478199e-03       2.035731448623e+04 
       7.528753622533e-03       2.054295629233e+04 
       7.654683054475e-03       2.072471987161e+04 
       7.780692450091e-03       2.090265207768e+04 
       7.906778701778e-03       2.107677309750e+04 
       8.032938902741e-03       2.124714657893e+04 
       8.159170332803e-03       2.141379289620e+04 
       8.285470445409e-03       2.157676254960e+04 
       8.411836855732e-03       2.173610937405e+04 
       8.538267329746e-03       2.189185933262e+04 
       8.664759774206e-03       2.204405443894e+04 
       8.791312227440e-03       2.219272546642e+04 
       8.917922850874e-03       2.233792286112e+04 
       9.044589921234e-03       2.247968770050e+04 
       9.171311823364e-03       2.261805270628e+04 
       9.298087043597e-03       2.275305573567e+04 
       9.424914163642e-03       2.288474464813e+04 
       9.551791854939e-03       2.301314987720e+04 
       9.678718873436e-03       2.313829987663e+04 
       9.805694054768e-03       2.326024808576e+04 
       9.932716309785e-03       2.337901657452e+04 
       1.005978462042e-02       2.349465465131e+04 
       1.018689803584e-02       2.360719019768e+04 
       1.031405566893e-02       2.371666185058e+04 
       1.044125669295e-02       2.382310628248e+04 
       1.056850033849e-02       2.392655139406e+04 
       1.069578589065e-02       2.402704131653e+04 
       1.082311268638e-02       2.412460951565e+04 
       1.095048011202e-02       2.421928904908e+04 
       1.107788760104e-02       2.431110487714e+04 
       1.120533463190e-02       2.440011567225e+04 
       1.133282072611e-02       2.448633740350e+04 
       1.146034544634e-02       2.456979702387e+04 
       1.158790839478e-02       2.465054199934e+04 
       1.171550921150e-02       2.472860831932e+04 
       1.184314757300e-02       2.480400852150e+04 
       1.197082319083e-02       2.487679368064e+04 
       1.209853581029e-02       2.494699505652e+04 
       1.222628520930e-02       2.501463407664e+04 
       1.235407119723e-02       2.507974486876e+04 
       1.248189361391e-02       2.514235784066e+04 
       1.260975232867e-02       2.520251664161e+04 
       1.273764723946e-02       2.526024216139e+04 
       1.286557827200e-02       2.531556499332e+04 
       1.299354537909e-02       2.536851604432e+04 
       1.312154853984e-02       2.541912030563e+04 
       1.324958775905e-02       2.546742630972e+04 
       1.337766306660e-02       2.551344126804e+04 
       1.350577451694e-02       2.555720666841e+04 
       1.363392218852e-02       2.559874497790e+04 
       1.376210618338e-02       2.563808969692e+04 
       1.389032662671e-02       2.567525569657e+04 
       1.401858366647e-02       2.571027669857e+04 
       1.414687747302e-02       2.574318647411e+04 
       1.427520823885e-02       2.577400610784e+04 
       1.440357617826e-02       2.580276005921e+04 
       1.453198152714e-02       2.582948414332e+04 
       1.466042454271e-02       2.585419118941e+04 
       1.478890550340e-02       2.587691854762e+04 
       1.491742470861e-02       2.589768343260e+04 
       1.504598247862e-02       2.591652110058e+04 
       1.517457915447e-02       2.593344814523e+04 
       1.530321509788e-02       2.594849451442e+04 
       1.543189069116e-02       2.596168268824e+04 
       1.556060633718e-02       2.597303676718e+04 
       1.568936245938e-02       2.598258519550e+04 
       1.581815950173e-02       2.599034519143e+04 
       1.594699792879e-02       2.599634907226e+04 
       1.607587822571e-02       2.600061385226e+04 
       1.620480089834e-02       2.600316129428e+04 
       1.633376647329e-02       2.600401740171e+04 
       1.646277549801e-02       2.600321113699e+04 
       1.659182854094e-02       2.600076793177e+04 
       1.672092619163e-02       2.599669548769e+04 
       1.685006906091e-02       2.599102612567e+04 
       1.697925778104e-02       2.598378566034e+04 
       1.710849300591e-02       2.597497970426e+04 
       1.723777541125e-02       2.596465668901e+04 
       1.736710569484e-02       2.595281805139e+04 
       1.749648457678e-02       2.593948472538e+04 
       1.762591279969e-02       2.592469307859e+04 
       1.775539112905e-02       2.590845221291e+04 
       1.788492035343e-02       2.589078449484e+04 
       1.801450128483e-02       2.587174179140e+04 
       1.814413475901e-02       2.585128336759e+04 
       1.827382163580e-02       2.582948564636e+04 
       1.840356279947e-02       2.580634537114e+04 
       1.853335915911e-02       2.578188400101e+04 
       1.866321164900e-02       2.575613954040e+04 
       1.879312122903e-02       2.572908510462e+04 
       1.892308888515e-02       2.570079270466e+04 
       1.905311562975e-02       2.567126636758e+04 
       1.918320250217e-02       2.564050122046e+04 
       1.931335056915e-02       2.560855013481e+04 
       1.944356092536e-02       2.557542553013e+04 
       1.957383469387e-02       2.554114877723e+04 
       1.970417302669e-02       2.550573143421e+04 
       1.983457710535e-02       2.546919600292e+04 
       1.996504814146e-02       2.543155419405e+04 
       2.009558737728e-02       2.539280628013e+04 
       2.022619608635e-02       2.535302835737e+04 
       2.035687557411e-02       2.531219334907e+04 
       2.048762717856e-02       2.527032755726e+04 
       2.061845227096e-02       2.522743274512e+04 
       2.074935225646e-02       2.518359971832e+04 
       2.088032857489e-02       2.513872941929e+04 
       2.101138270146e-02       2.509296859989e+04 
       2.114251614753e-02       2.504625094621e+04 
       2.127373046143e-02       2.499859477827e+04 
       2.140502722924e-02       2.495004567057e+04 
       2.153640807565e-02       2.490064084797e+04 
       2.166787466482e-02       2.485033795272e+04 
       2.179942870129e-02       2.479919521762e+04 
       2.193107193090e-02       2.474713732670e+04 
       2.206280614172e-02       2.469438753688e+04 
       2.219463316506e-02       2.464078563206e+04 
       2.232655487647e-02       2.458635647680e+04 
       2.245857319680e-02       2.453122322809e+04 
       2.259069009326e-02       2.447531894761e+04 
       2.272290758053e-02       2.441868772836e+04 
       2.285522772193e-02       2.436126555541e+04 
       2.298765263057e-02       2.430318675308e+04 
       2.312018447061e-02       2.424443940812e+04 
       2.325282545847e-02       2.418501338239e+04 
       2.338557786417e-02       2.412484807571e+04 
       2.351844401264e-02       2.406406815315e+04 
       2.365142628513e-02       2.400267794610e+04 
       2.378452712059e-02       2.394066476035e+04 
       2.391774901721e-02       2.387802499977e+04 
       2.405109453385e-02       2.381481933149e+04 
       2.418456629169e-02       2.375100900676e+04 
       2.431816697580e-02       2.368664772266e+04 
       2.445189933682e-02       2.362172046073e+04 
       2.458576619268e-02       2.355629091498e+04 
       2.471977043040e-02       2.349030127351e+04 
       2.485391500791e-02       2.342383800527e+04 
       2.498820295596e-02       2.335680289489e+04 
       2.512263738006e-02       2.328933800052e+04 
       2.525722146257e-02       2.322144568058e+04 
       2.539195846471e-02       2.315301677356e+04 
       2.552685172881e-02       2.308419287308e+04 
       2.566190468049e-02       2.301487330615e+04 
       2.579712083101e-02       2.294521892874e+04 
       2.593250377968e-02       2.287510278420e+04 
       2.606805721629e-02       2.280459512003e+04 
       2.620378492372e-02       2.273368496908e+04 
       2.633969078058e-02       2.266243659227e+04 
       2.647577876398e-02       2.259081110454e+04 
       2.661205295233e-02       2.251884896774e+04 
       2.674851752834e-02       2.244651641381e+04 
       2.688517678204e-02       2.237387306260e+04 
       2.702203511398e-02       2.230089587704e+04 
       2.715909703844e-02       2.222759286435e+04 
       2.729636718693e-02       2.215406973515e+04 
       2.743385031162e-02       2.208023967281e+04 
       2.757155128905e-02       2.200607996723e+04 
       2.770947512392e-02       2.193165126970e+04 
       2.784762695300e-02       2.185700345732e+04 
       2.798601204924e-02       2.178212037438e+04 
       2.812463582598e-02       2.170693794392e+04 
       2.826350384140e-02       2.163158402305e+04 
       2.840262180305e-02       2.155602184057e+04 
       2.854199557264e-02       2.148024261062e+04 
       2.868163117095e-02       2.140420637718e+04 
       2.882153478299e-02       2.132803804591e+04 
       2.896171276333e-02       2.125163381626e+04 
       2.910217164167e-02       2.117514172515e+04 
       2.924291812863e-02       2.109840133456e+04 
       2.938395912172e-02       2.102155686456e+04 
       2.952530171170e-02       2.094453054841e+04 
       2.966695318904e-02       2.086737591486e+04 
       2.980892105075e-02       2.079003002286e+04 
       2.995121300749e-02       2.071262833441e+04 
       3.009383699094e-02       2.063507438885e+04 
       3.023680116153e-02       2.055743677440e+04 
       3.038011391653e-02       2.047965350543e+04 
       3.052378389839e-02       2.040183476098e+04 
       3.066782000355e-02       2.032384836684e+04 
       3.081223139165e-02       2.024585863204e+04 
       3.095702749503e-02       2.016765045928e+04 
       3.110221802883e-02       2.008953324760e+04 
       3.124781300142e-02       2.001127987786e+04 
       3.139382272539e-02       1.993294744428e+04 
       3.154025782901e-02       1.985461372510e+04 
       3.168712926826e-02       1.977618770570e+04 
       3.183444833943e-02       1.969777302572e+04 
       3.198222669227e-02       1.961926669022e+04 
       3.213047634390e-02       1.954067986818e+04 
       3.227920969327e-02       1.946214921358e+04 
       3.242843953640e-02       1.938360306221e+04 
       3.257817908239e-02       1.930502931115e+04 
       3.272844197023e-02       1.922637538394e+04 
       3.287924228643e-02       1.914773474815e+04 
       3.303059458363e-02       1.906914072762e+04 
       3.318251390009e-02       1.899051411728e+04 
       3.333501578030e-02       1.891194675611e+04 
       3.348811629661e-02       1.883329236455e+04 
       3.364183207203e-02       1.875473767127e+04 
       3.379618030435e-02       1.867613822366e+04 
       3.395117879147e-02       1.859756922266e+04 
       3.410684595820e-02       1.851903510685e+04 
       3.426320088456e-02       1.844049887200e+04 
       3.442026333565e-02       1.836199318487e+04 
       3.457805379329e-02       1.828352554247e+04 
       3.473659348943e-02       1.820510187926e+04 
       3.489590444159e-02       1.812669618382e+04 
       3.505600949031e-02       1.804835208717e+04 
       3.521693233897e-02       1.797007067312e+04 
       3.537869759592e-02       1.789177137241e+04 
       3.554133081926e-02       1.781350309151e+04 
       3.570485856438e-02       1.773531450591e+04 
       3.586930843452e-02       1.765709836693e+04 
       3.603470913452e-02       1.757903554888e+04 
       3.620109052809e-02       1.750095958469e+04 
       3.636848369875e-02       1.742287523048e+04 
       3.653692101490e-02       1.734492802175e+04 
       3.670643619918e-02       1.726698371045e+04 
       3.687706440256e-02       1.718910805890e+04 
       3.704884228357e-02       1.711123156139e+04 
       3.722180809299e-02       1.703339706976e+04 
       3.739600176464e-02       1.695564141746e+04 
       3.757146501256e-02       1.687788910975e+04 
       3.774824143532e-02       1.680019593614e+04 
       3.792637662805e-02       1.672253600621e+04 
       3.810591830276e-02       1.664493405922e+04 
       3.828691641792e-02       1.656739543909e+04 
       3.846942331789e-02       1.648980593016e+04 
       3.865349388332e-02       1.641230734845e+04 
       3.883918569350e-02       1.633482102740e+04 
       3.902655920171e-02       1.625733261148e+04 
       3.921567792500e-02       1.617985840366e+04 
       3.940660864969e-02       1.610241312769e+04 
       3.959942165424e-02       1.602499217484e+04 
       3.979419095123e-02       1.594755700392e+04 
       3.999099455046e-02       1.587016323911e+04 
       4.018991474538e-02       1.579268215608e+04 
       4.039103842534e-02       1.571526269718e+04 
       4.059445741648e-02       1.563779594691e+04 
       4.080026885446e-02       1.556026121684e+04 
       4.100857559258e-02       1.548272966788e+04 
       4.121948664941e-02       1.540518621241e+04 
       4.143311770044e-02       1.532755139123e+04 
       4.164959161916e-02       1.524992389073e+04 
       4.186903907340e-02       1.517215567350e+04 
       4.209159918382e-02       1.509432970430e+04 
       4.231742025239e-02       1.501641697588e+04 
       4.254666056987e-02       1.493844021317e+04 
       4.277948931255e-02       1.486029118257e+04 
       4.301608754022e-02       1.478204424653e+04 
       4.325664930923e-02       1.470367619642e+04 
       4.350138291655e-02       1.462510411197e+04 
       4.375051229355e-02       1.454634787541e+04 
       4.400427857115e-02       1.446742686623e+04 
       4.426294184194e-02       1.438829379447e+04 
       4.452678314895e-02       1.430894346607e+04 
       4.479610673642e-02       1.422930539103e+04 
       4.507124260416e-02       1.414941651108e+04 
       4.535254941479e-02       1.406922661883e+04 
       4.564041781264e-02       1.398868663984e+04 
       4.593527422456e-02       1.390777848726e+04 
       4.623758522675e-02       1.382650319877e+04 
       4.654786257903e-02       1.374474149329e+04 
       4.686666904923e-02       1.366256189870e+04 
       4.719462517630e-02       1.357982232906e+04 
       4.753241715377e-02       1.349653956761e+04 
       4.788080605564e-02       1.341265198604e+04 
       4.824063867786e-02       1.332806396881e+04 
       4.861286033289e-02       1.324276072790e+04 
       4.899853001585e-02       1.315665092781e+04 
       4.939883846371e-02       1.306960285956e+04 
       4.981512975963e-02       1.298159477305e+04 
       5.024892730110e-02       1.289252015478e+04 
       5.070196516278e-02       1.280217159364e+04 
       5.117622615532e-02       1.271050415449e+04 
       5.167398822482e-02       1.261728801059e+04 
       5.219788126984e-02       1.252239178886e+04 
       5.275095699105e-02       1.242553628257e+04 
       5.333677504036e-02       1.232643719320e+04 
       5.395950949389e-02       1.222484504201e+04 
       5.462408047959e-02       1.212023719723e+04 
       5.533631649025e-02       1.201215796777e+04 
       5.610315314421e-02       1.189997442164e+04 
       5.693287314850e-02       1.178284389627e+04 
       5.783538842745e-02       1.165963335977e+04 
       5.882255586174e-02       1.152904317229e+04 
       5.990849758118e-02       1.138909594386e+04 
       6.110985676323e-02       1.123731792626e+04 
