# Matter power spectrum P(k) at redshift z=0
# for k=1.0274e-05 to 14.0817 h/Mpc,
# number of wavenumbers equal to 736
#    1:k (h/Mpc)              2:P (Mpc/h)^3        
       1.027404210298e-05       5.515504075284e+01 
       2.288320984717e-05       1.190198154499e+02 
       3.553498657699e-05       1.816354217034e+02 
       4.826198878475e-05       2.437174844870e+02 
       6.109735106795e-05       3.056633345554e+02 
       7.407500929027e-05       3.677644629783e+02 
       8.722999244711e-05       4.302659141496e+02 
       1.005987269674e-04       4.933904004877e+02 
       1.142193572127e-04       5.573505480881e+02 
       1.281320859662e-04       6.223561506950e+02 
       1.423795387162e-04       6.886191038655e+02 
       1.570071555031e-04       7.563571391035e+02 
       1.720636139676e-04       8.257969322007e+02 
       1.876012869688e-04       8.971768801547e+02 
       2.036767376417e-04       9.707497174377e+02 
       2.203512539515e-04       1.046785065037e+03 
       2.376914235323e-04       1.125571961075e+03 
       2.557697477175e-04       1.207421412652e+03 
       2.746652909520e-04       1.292668931484e+03 
       2.944643579864e-04       1.381677053337e+03 
       3.152611860734e-04       1.474837768738e+03 
       3.371586325063e-04       1.572574750692e+03 
       3.602688289253e-04       1.675345273921e+03 
       3.847137626143e-04       1.783641589506e+03 
       4.106257314273e-04       1.897991562896e+03 
       4.381476032424e-04       2.018958219279e+03 
       4.674327937222e-04       2.147137830660e+03 
       4.986448592449e-04       2.283156110197e+03 
       5.319565878721e-04       2.427662051111e+03 
       5.675484642057e-04       2.581318901562e+03 
       6.056063893932e-04       2.744791873909e+03 
       6.463185617755e-04       2.918732364580e+03 
       6.898714729482e-04       3.103758531726e+03 
       7.364450523790e-04       3.300432818358e+03 
       7.862071002607e-04       3.509236991441e+03 
       8.393072741912e-04       3.730546368813e+03 
       8.958710221081e-04       3.964604823550e+03 
       9.559939546338e-04       4.211503141537e+03 
       1.019737194224e-03       4.471162797031e+03 
       1.087124201626e-03       4.743327447671e+03 
       1.158139453616e-03       5.027563438312e+03 
       1.232729144483e-03       5.323269758231e+03 
       1.310803844125e-03       5.629696815397e+03 
       1.392242817552e-03       5.945931457576e+03 
       1.476899540373e-03       6.271041879489e+03 
       1.564607861759e-03       6.604003755146e+03 
       1.655188274930e-03       6.943759152116e+03 
       1.748453837907e-03       7.289247397047e+03 
       1.844215413756e-03       7.639428816961e+03 
       1.942286037802e-03       7.993303497232e+03 
       2.042484344046e-03       8.349925839181e+03 
       2.144637079630e-03       8.708413692169e+03 
       2.248580800163e-03       9.067954575251e+03 
       2.354162872584e-03       9.427807811976e+03 
       2.461241922659e-03       9.787303192670e+03 
       2.569687858549e-03       1.014584086222e+04 
       2.679381586940e-03       1.050288484524e+04 
       2.790214519180e-03       1.085796135257e+04 
       2.902087945205e-03       1.121065373903e+04 
       3.014912334897e-03       1.156059489565e+04 
       3.128606610855e-03       1.190746591375e+04 
       3.243097423772e-03       1.225098932799e+04 
       3.358318451498e-03       1.259092650321e+04 
       3.474209735220e-03       1.292706770315e+04 
       3.590717060462e-03       1.325923898749e+04 
       3.707791386580e-03       1.358728908087e+04 
       3.825388325559e-03       1.391109412576e+04 
       3.943467669046e-03       1.423054540289e+04 
       4.061992961333e-03       1.454555759774e+04 
       4.180931115321e-03       1.485606117432e+04 
       4.300252068119e-03       1.516199777234e+04 
       4.419928472833e-03       1.546332512651e+04 
       4.539935423149e-03       1.576000744999e+04 
       4.660250207439e-03       1.605202912419e+04 
       4.780852089355e-03       1.633936266382e+04 
       4.901722112084e-03       1.662201641230e+04 
       5.022842923700e-03       1.689999607910e+04 
       5.144198621287e-03       1.717329614888e+04 
       5.265774611752e-03       1.744193363860e+04 
       5.387557487452e-03       1.770591966135e+04 
       5.509534914975e-03       1.796527070003e+04 
       5.631695535596e-03       1.822001524449e+04 
       5.754028876100e-03       1.847017125798e+04 
       5.876525268804e-03       1.871577085393e+04 
       5.999175779758e-03       1.895684774002e+04 
       6.121972144215e-03       1.919343215552e+04 
       6.244906708570e-03       1.942555297381e+04 
       6.367972378052e-03       1.965325410365e+04 
       6.491162569555e-03       1.987656273821e+04 
       6.614471169042e-03       2.009552729526e+04 
       6.737892493041e-03       2.031018633641e+04 
       6.861421253793e-03       2.052057403603e+04 
       6.985052527673e-03       2.072673471825e+04 
       7.108781726541e-03       2.092870944141e+04 
       7.232604571725e-03       2.112653351022e+04 
       7.356517070358e-03       2.132025632591e+04 
       7.480515493839e-03       2.150992033683e+04 
       7.604596358212e-03       2.169557354854e+04 
       7.728756406254e-03       2.187724062262e+04 
       7.852992591126e-03       2.205498104018e+04 
       7.977302061418e-03       2.222883187721e+04 
       8.101682147467e-03       2.239881807343e+04 
       8.226130348828e-03       2.256501425637e+04 
       8.350644322769e-03       2.272745214897e+04 
       8.475221873730e-03       2.288616474855e+04 
       8.599860943624e-03       2.304120186508e+04 
       8.724559602926e-03       2.319259530760e+04 
       8.849316042466e-03       2.334039734084e+04 
       8.974128565875e-03       2.348464308256e+04 
       9.098995582617e-03       2.362537803376e+04 
       9.223915601555e-03       2.376264257247e+04 
       9.348887225023e-03       2.389647071831e+04 
       9.473909143333e-03       2.402690253837e+04 
       9.598980129706e-03       2.415398595430e+04 
       9.724099035576e-03       2.427774216496e+04 
       9.849264786243e-03       2.439822461394e+04 
       9.974476376846e-03       2.451546849589e+04 
       1.009973286863e-02       2.462950315646e+04 
       1.022503338547e-02       2.474038229776e+04 
       1.035037711069e-02       2.484813302595e+04 
       1.047576328402e-02       2.495278553592e+04 
       1.060119119888e-02       2.505438723051e+04 
       1.072666019978e-02       2.515297482733e+04 
       1.085216967991e-02       2.524856893104e+04 
       1.097771907894e-02       2.534122887836e+04 
       1.110330788092e-02       2.543097746888e+04 
       1.122893561237e-02       2.551784864030e+04 
       1.135460184048e-02       2.560188363891e+04 
       1.148030617143e-02       2.568311125157e+04 
       1.160604824887e-02       2.576157662661e+04 
       1.173182775242e-02       2.583730042277e+04 
       1.185764439638e-02       2.591031964426e+04 
       1.198349792843e-02       2.598066781914e+04 
       1.210938812850e-02       2.604838295782e+04 
       1.223531480768e-02       2.611349732691e+04 
       1.236127780719e-02       2.617602960734e+04 
       1.248727699749e-02       2.623603826512e+04 
       1.261331227736e-02       2.629353074156e+04 
       1.273938357316e-02       2.634855267555e+04 
       1.286549083801e-02       2.640113756969e+04 
       1.299163405118e-02       2.645130876486e+04 
       1.311781321738e-02       2.649910250511e+04 
       1.324402836623e-02       2.654454836788e+04 
       1.337027955170e-02       2.658766418396e+04 
       1.349656685160e-02       2.662850137008e+04 
       1.362289036716e-02       2.666706497080e+04 
       1.374925022257e-02       2.670339384375e+04 
       1.387564656466e-02       2.673752311949e+04 
       1.400207956250e-02       2.676946958885e+04 
       1.412854940714e-02       2.679926530302e+04 
       1.425505631131e-02       2.682694314073e+04 
       1.438160050918e-02       2.685252404682e+04 
       1.450818225617e-02       2.687603597617e+04 
       1.463480182871e-02       2.689751387636e+04 
       1.476145952416e-02       2.691697207412e+04 
       1.488815566058e-02       2.693444552844e+04 
       1.501489057672e-02       2.694995802034e+04 
       1.514166463185e-02       2.696353789374e+04 
       1.526847820578e-02       2.697521311015e+04 
       1.539533169875e-02       2.698499588149e+04 
       1.552222553145e-02       2.699291681094e+04 
       1.564916014502e-02       2.699900015408e+04 
       1.577613600109e-02       2.700330268797e+04 
       1.590315358178e-02       2.700579847355e+04 
       1.603021338980e-02       2.700653636089e+04 
       1.615731594853e-02       2.700553993347e+04 
       1.628446180211e-02       2.700285003838e+04 
       1.641165151557e-02       2.699845097485e+04 
       1.653888567495e-02       2.699239331341e+04 
       1.666616488747e-02       2.698470300045e+04 
       1.679348978171e-02       2.697539248041e+04 
       1.692086100778e-02       2.696447886201e+04 
       1.704827923753e-02       2.695200702563e+04 
       1.717574516477e-02       2.693798120148e+04 
       1.730325950554e-02       2.692242294902e+04 
       1.743082299832e-02       2.690538648757e+04 
       1.755843640434e-02       2.688683653783e+04 
       1.768610050784e-02       2.686684860205e+04 
       1.781381611639e-02       2.684541401798e+04 
       1.794158406122e-02       2.682257236128e+04 
       1.806940519756e-02       2.679834032839e+04 
       1.819728040496e-02       2.677273990529e+04 
       1.832521058771e-02       2.674576516888e+04 
       1.845319667518e-02       2.671747531968e+04 
       1.858123962229e-02       2.668787192611e+04 
       1.870934040986e-02       2.665698619267e+04 
       1.883750004510e-02       2.662485356109e+04 
       1.896571956207e-02       2.659144675687e+04 
       1.909400002211e-02       2.655682378287e+04 
       1.922234251438e-02       2.652100322668e+04 
       1.935074815635e-02       2.648398543933e+04 
       1.947921809435e-02       2.644581378127e+04 
       1.960775350410e-02       2.640650732943e+04 
       1.973635559129e-02       2.636604989501e+04 
       1.986502559215e-02       2.632450622068e+04 
       1.999376477410e-02       2.628184434365e+04 
       2.012257443634e-02       2.623815767976e+04 
       2.025145591054e-02       2.619338353228e+04 
       2.038041056146e-02       2.614758970686e+04 
       2.050943978770e-02       2.610079575841e+04 
       2.063854502239e-02       2.605301332659e+04 
       2.076772773392e-02       2.600424989037e+04 
       2.089698942675e-02       2.595455081802e+04 
       2.102633164215e-02       2.590392921612e+04 
       2.115575595902e-02       2.585231375254e+04 
       2.128526399478e-02       2.579984410898e+04 
       2.141485740618e-02       2.574649046125e+04 
       2.154453789022e-02       2.569224883635e+04 
       2.167430718506e-02       2.563718335945e+04 
       2.180416707100e-02       2.558129881390e+04 
       2.193411937143e-02       2.552456164968e+04 
       2.206416595385e-02       2.546704894666e+04 
       2.219430873092e-02       2.540872168448e+04 
       2.232454966154e-02       2.534963745916e+04 
       2.245489075195e-02       2.528982873689e+04 
       2.258533405688e-02       2.522927353695e+04 
       2.271588168074e-02       2.516800428585e+04 
       2.284653577881e-02       2.510595595314e+04 
       2.297729855853e-02       2.504334830003e+04 
       2.310817228079e-02       2.498001782208e+04 
       2.323915926125e-02       2.491598188618e+04 
       2.337026187174e-02       2.485133400264e+04 
       2.350148254167e-02       2.478606990990e+04 
       2.363282375951e-02       2.472014220722e+04 
       2.376428807431e-02       2.465363895165e+04 
       2.389587809726e-02       2.458656518877e+04 
       2.402759650330e-02       2.451893327353e+04 
       2.415944603280e-02       2.445071248391e+04 
       2.429142949330e-02       2.438196593718e+04 
       2.442354976126e-02       2.431266231156e+04 
       2.455580978391e-02       2.424291527702e+04 
       2.468821258116e-02       2.417260410064e+04 
       2.482076124757e-02       2.410179997946e+04 
       2.495345895435e-02       2.403058711901e+04 
       2.508630895149e-02       2.395881774770e+04 
       2.521931456991e-02       2.388659577534e+04 
       2.535247922371e-02       2.381404703976e+04 
       2.548580641249e-02       2.374099802195e+04 
       2.561929972376e-02       2.366753407875e+04 
       2.575296283539e-02       2.359368140267e+04 
       2.588679951822e-02       2.351945277969e+04 
       2.602081363871e-02       2.344481297146e+04 
       2.615500916165e-02       2.336986638906e+04 
       2.628939015308e-02       2.329453477146e+04 
       2.642396078319e-02       2.321884637537e+04 
       2.655872532941e-02       2.314284172332e+04 
       2.669368817957e-02       2.306657519206e+04 
       2.682885383517e-02       2.298991074279e+04 
       2.696422691483e-02       2.291297449081e+04 
       2.709981215777e-02       2.283569364482e+04 
       2.723561442751e-02       2.275826677309e+04 
       2.737163871567e-02       2.268051937683e+04 
       2.750789014590e-02       2.260253020446e+04 
       2.764437397797e-02       2.252424143684e+04 
       2.778109561207e-02       2.244577378481e+04 
       2.791806059317e-02       2.236705334082e+04 
       2.805527461563e-02       2.228821330183e+04 
       2.819274352800e-02       2.220903327754e+04 
       2.833047333793e-02       2.212968902821e+04 
       2.846847021736e-02       2.205016253199e+04 
       2.860674050786e-02       2.197044429833e+04 
       2.874529072623e-02       2.189053282583e+04 
       2.888412757030e-02       2.181053269565e+04 
       2.902325792497e-02       2.173032892844e+04 
       2.916268886854e-02       2.165002345235e+04 
       2.930242767921e-02       2.156952395584e+04 
       2.944248184197e-02       2.148888940892e+04 
       2.958285905574e-02       2.140819053252e+04 
       2.972356724076e-02       2.132734699356e+04 
       2.986461454636e-02       2.124643195099e+04 
       3.000600935908e-02       2.116537220691e+04 
       3.014776031110e-02       2.108420471631e+04 
       3.028987628910e-02       2.100299016812e+04 
       3.043236644343e-02       2.092166000278e+04 
       3.057524019780e-02       2.084029411567e+04 
       3.071850725934e-02       2.075878763820e+04 
       3.086217762918e-02       2.067735954290e+04 
       3.100626161341e-02       2.059572623598e+04 
       3.115076983473e-02       2.051406189689e+04 
       3.129571324449e-02       2.043242914721e+04 
       3.144110313540e-02       2.035072859931e+04 
       3.158695115479e-02       2.026903259295e+04 
       3.173326931861e-02       2.018728926666e+04 
       3.188007002602e-02       2.010549294314e+04 
       3.202736607473e-02       2.002369183891e+04 
       3.217517067717e-02       1.994185065538e+04 
       3.232349747744e-02       1.986003882589e+04 
       3.247236056905e-02       1.977827908410e+04 
       3.262177451377e-02       1.969640696746e+04 
       3.277175436123e-02       1.961466139401e+04 
       3.292231566978e-02       1.953290549322e+04 
       3.307347452830e-02       1.945106876674e+04 
       3.322524757924e-02       1.936928004830e+04 
       3.337765204299e-02       1.928753375509e+04 
       3.353070574345e-02       1.920582886578e+04 
       3.368442713515e-02       1.912417603361e+04 
       3.383883533184e-02       1.904248222225e+04 
       3.399395013675e-02       1.896086731311e+04 
       3.414979207451e-02       1.887920262942e+04 
       3.430638242505e-02       1.879772233599e+04 
       3.446374325938e-02       1.871619171655e+04 
       3.462189747762e-02       1.863466058787e+04 
       3.478086884924e-02       1.855323099228e+04 
       3.494068205579e-02       1.847184867931e+04 
       3.510136273624e-02       1.839052040937e+04 
       3.526293753527e-02       1.830915987968e+04 
       3.542543415443e-02       1.822795676744e+04 
       3.558888140678e-02       1.814676036359e+04 
       3.575330927493e-02       1.806559388366e+04 
       3.591874897296e-02       1.798446055273e+04 
       3.608523301249e-02       1.790347606317e+04 
       3.625279527315e-02       1.782244787868e+04 
       3.642147107789e-02       1.774144272949e+04 
       3.659129727355e-02       1.766057127855e+04 
       3.676231231704e-02       1.757967674552e+04 
       3.693455636766e-02       1.749882832894e+04 
       3.710807138611e-02       1.741809463415e+04 
       3.728290124070e-02       1.733731285384e+04 
       3.745909182154e-02       1.725661103784e+04 
       3.763669116322e-02       1.717596369519e+04 
       3.781574957691e-02       1.709536173846e+04 
       3.799631979273e-02       1.701482816029e+04 
       3.817845711330e-02       1.693422733756e+04 
       3.836221957953e-02       1.685369120346e+04 
       3.854766814992e-02       1.677317225285e+04 
       3.873486689461e-02       1.669268315567e+04 
       3.892388320563e-02       1.661221241483e+04 
       3.911478802516e-02       1.653179120722e+04 
       3.930765609335e-02       1.645130975376e+04 
       3.950256621807e-02       1.637084495573e+04 
       3.969960156871e-02       1.629035228900e+04 
       3.989884999665e-02       1.620986966103e+04 
       4.010040438546e-02       1.612939313343e+04 
       4.030436303393e-02       1.604882532344e+04 
       4.051083007594e-02       1.596826381840e+04 
       4.071991594114e-02       1.588768449663e+04 
       4.093173786152e-02       1.580696066291e+04 
       4.114642042920e-02       1.572625218989e+04 
       4.136409621172e-02       1.564545992484e+04 
       4.158490643213e-02       1.556453813227e+04 
       4.180900172196e-02       1.548355821532e+04 
       4.203654295656e-02       1.540245655146e+04 
       4.226770218379e-02       1.532127060961e+04 
       4.250266365845e-02       1.523988124096e+04 
       4.274162499724e-02       1.515831874414e+04 
       4.298479847103e-02       1.507667003209e+04 
       4.323241245419e-02       1.499478038194e+04 
       4.348471305404e-02       1.491267595520e+04 
       4.374196594750e-02       1.483037047010e+04 
       4.400445845656e-02       1.474781104525e+04 
       4.427250190020e-02       1.466495501050e+04 
       4.454643426706e-02       1.458179525717e+04 
       4.482662326158e-02       1.449830257815e+04 
       4.511346978655e-02       1.441444648813e+04 
       4.540741193724e-02       1.433024233968e+04 
       4.570892959762e-02       1.424556365695e+04 
       4.601854974768e-02       1.416040253967e+04 
       4.633685261409e-02       1.407478338958e+04 
       4.666447882487e-02       1.398855755608e+04 
       4.700213776448e-02       1.390170454677e+04 
       4.735061737027e-02       1.381425598949e+04 
       4.771079566713e-02       1.372600669002e+04 
       4.808365440785e-02       1.363695064761e+04 
       4.847029527579e-02       1.354705823851e+04 
       4.887195921988e-02       1.345612929053e+04 
       4.929004963614e-02       1.336417569726e+04 
       4.972616029350e-02       1.327101007218e+04 
       5.018210913605e-02       1.317650523405e+04 
       5.065997939168e-02       1.308050068921e+04 
       5.116216979445e-02       1.298285914159e+04 
       5.169145620055e-02       1.288325035901e+04 
       5.225106746003e-02       1.278154761687e+04 
       5.284477910021e-02       1.267735556090e+04 
       5.347702915686e-02       1.257033330930e+04 
       5.415306126340e-02       1.245999010827e+04 
       5.487910064565e-02       1.234572153776e+04 
       5.566256845959e-02       1.222681062435e+04 
       5.651233789428e-02       1.210222142045e+04 
       5.743902957315e-02       1.197074619286e+04 
       5.845533018972e-02       1.183073174709e+04 
       5.957629042112e-02       1.167989663218e+04 
