# Matter power spectrum P(k) at redshift z=0
# for k=1.02455e-05 to 14.0537 h/Mpc,
# number of wavenumbers equal to 736
#    1:k (h/Mpc)              2:P (Mpc/h)^3        
       1.024551683730e-05       5.319462015922e+01 
       2.283217326008e-05       1.153108519689e+02 
       3.546118521272e-05       1.763890369906e+02 
       4.816499401946e-05       2.370557928299e+02 
       6.097655428571e-05       2.976685150348e+02 
       7.392961451983e-05       3.584952575245e+02 
       8.705900634916e-05       4.197652425800e+02 
       1.004009460160e-04       4.816894903140e+02 
       1.139933518683e-04       5.444713887189e+02 
       1.278761815912e-04       6.083130565421e+02 
       1.420917929386e-04       6.734197323171e+02 
       1.566853316871e-04       7.400031706752e+02 
       1.717051504130e-04       8.082845137604e+02 
       1.872032614238e-04       8.784968972775e+02 
       2.032358266949e-04       9.508879512471e+02 
       2.198636868649e-04       1.025722237638e+03 
       2.371529301053e-04       1.103283711979e+03 
       2.551754998421e-04       1.183878208014e+03 
       2.740098376526e-04       1.267835923921e+03 
       2.937415539552e-04       1.355513902608e+03 
       3.144641140477e-04       1.447298434660e+03 
       3.362795203212e-04       1.543607279246e+03 
       3.592989627548e-04       1.644891576698e+03 
       3.836433988293e-04       1.751637275876e+03 
       4.094440106817e-04       1.864365809166e+03 
       4.368424718700e-04       1.983633752172e+03 
       4.659909392578e-04       2.110031030136e+03 
       4.970516687906e-04       2.244177330301e+03 
       5.301961399256e-04       2.386716175842e+03 
       5.656035661376e-04       2.538306216316e+03 
       6.034586735396e-04       2.699609331993e+03 
       6.439486525092e-04       2.871275241001e+03 
       6.872592344461e-04       3.053922574174e+03 
       7.335699215716e-04       3.248116791226e+03 
       7.830485014236e-04       3.454345627220e+03 
       8.358451012393e-04       3.672993550978e+03 
       8.920861631441e-04       3.904316883717e+03 
       9.518688227883e-04       4.148421954002e+03 
       1.015256221881e-03       4.405248509861e+03 
       1.082274254113e-03       4.674560531534e+03 
       1.152910124597e-03       4.955945879039e+03 
       1.227112908109e-03       5.248825284064e+03 
       1.304796056098e-03       5.552470245695e+03 
       1.385841575070e-03       5.865989373114e+03 
       1.470105425818e-03       6.188464341763e+03 
       1.557423604380e-03       6.518886572751e+03 
       1.647618367718e-03       6.856209603217e+03 
       1.740504144143e-03       7.199381231506e+03 
       1.835892791118e-03       7.547367464838e+03 
       1.933597999539e-03       7.899171669497e+03 
       2.033438768403e-03       8.253849192368e+03 
       2.135241971671e-03       8.610517152930e+03 
       2.238844104848e-03       8.968360866553e+03 
       2.344092334592e-03       9.326636413146e+03 
       2.450844986612e-03       9.684669749169e+03 
       2.558971602687e-03       1.004185587166e+04 
       2.668352683495e-03       1.039765416849e+04 
       2.778879215329e-03       1.075158628037e+04 
       2.890452059378e-03       1.110322900231e+04 
       3.002981264123e-03       1.145221141112e+04 
       3.116385345709e-03       1.179820891038e+04 
       3.230590568255e-03       1.214093958415e+04 
       3.345530245837e-03       1.248015980583e+04 
       3.461144080091e-03       1.281565539296e+04 
       3.577377541576e-03       1.314724813408e+04 
       3.694181298886e-03       1.347478264917e+04 
       3.811510696560e-03       1.379813131111e+04 
       3.929325280920e-03       1.411718203087e+04 
       4.047588371684e-03       1.443184586086e+04 
       4.166266676460e-03       1.474204979324e+04 
       4.285329944873e-03       1.504773292774e+04 
       4.404750658907e-03       1.534885022285e+04 
       4.524503756098e-03       1.564536560974e+04 
       4.644566382331e-03       1.593725460072e+04 
       4.764917671203e-03       1.622449091452e+04 
       4.885538547153e-03       1.650708187281e+04 
       5.006411549767e-03       1.678503072614e+04 
       5.127520676952e-03       1.705832957289e+04 
       5.248851244877e-03       1.732699308229e+04 
       5.370389762815e-03       1.759103145436e+04 
       5.492123821208e-03       1.785045907992e+04 
       5.614041991478e-03       1.810530221817e+04 
       5.736133736263e-03       1.835557980973e+04 
       5.858389328915e-03       1.860131958709e+04 
       5.980799781223e-03       1.884255599353e+04 
       6.103356778457e-03       1.907931646367e+04 
       6.226052620914e-03       1.931163002734e+04 
       6.348880171265e-03       1.953953974544e+04 
       6.471832807068e-03       1.976307158704e+04 
       6.594904377891e-03       1.998227102822e+04 
       6.718089166545e-03       2.019717789615e+04 
       6.841381854004e-03       2.040782523152e+04 
       6.964777487615e-03       2.061425605102e+04 
       7.088271452257e-03       2.081651066522e+04 
       7.211859444151e-03       2.101462424398e+04 
       7.335537447041e-03       2.120864004256e+04 
       7.459301710519e-03       2.139861198406e+04 
       7.583148730263e-03       2.158457698758e+04 
       7.707075230019e-03       2.176656285631e+04 
       7.831078145138e-03       2.194462714338e+04 
       7.955154607529e-03       2.211880856069e+04 
       8.079301931887e-03       2.228913029416e+04 
       8.203517603078e-03       2.245567128011e+04 
       8.327799264568e-03       2.261844340052e+04 
       8.452144707811e-03       2.277750381197e+04 
       8.576551862486e-03       2.293289041562e+04 
       8.701018787533e-03       2.308463573626e+04 
       8.825543662895e-03       2.323279206359e+04 
       8.950124781911e-03       2.337739577001e+04 
       9.074760544306e-03       2.351849150712e+04 
       9.199449449725e-03       2.365610994372e+04 
       9.324190091752e-03       2.379029791039e+04 
       9.448981152401e-03       2.392109027055e+04 
       9.573821396999e-03       2.404853459621e+04 
       9.698709669473e-03       2.417265146171e+04 
       9.823644887972e-03       2.429349380022e+04 
       9.948626040811e-03       2.441109799332e+04 
       1.007365218272e-02       2.452549476512e+04 
       1.019872243136e-02       2.463672926760e+04 
       1.032383596407e-02       2.474483628563e+04 
       1.044899201489e-02       2.484984380999e+04 
       1.057418987175e-02       2.495179800930e+04 
       1.069942887390e-02       2.505073814356e+04 
       1.082470840947e-02       2.514668808985e+04 
       1.095002791324e-02       2.523969133255e+04 
       1.107538686457e-02       2.532979224334e+04 
       1.120078478544e-02       2.541700775222e+04 
       1.132622123864e-02       2.550138047741e+04 
       1.145169582613e-02       2.558294915669e+04 
       1.157720818740e-02       2.566174961297e+04 
       1.170275799812e-02       2.573780455002e+04 
       1.182834496868e-02       2.581115031803e+04 
       1.195396884299e-02       2.588183663859e+04 
       1.207962939731e-02       2.594986876335e+04 
       1.220532643913e-02       2.601529897254e+04 
       1.233105980618e-02       2.607815522881e+04 
       1.245682936547e-02       2.613847243619e+04 
       1.258263501245e-02       2.619628659425e+04 
       1.270847667016e-02       2.625161625430e+04 
       1.283435428851e-02       2.630449904703e+04 
       1.296026784358e-02       2.635497305332e+04 
       1.308621733696e-02       2.640305997832e+04 
       1.321220279519e-02       2.644879828649e+04 
       1.333822426921e-02       2.649220641599e+04 
       1.346428183381e-02       2.653332395411e+04 
       1.359037558725e-02       2.657216766881e+04 
       1.371650565080e-02       2.660877522212e+04 
       1.384267216835e-02       2.664316815598e+04 
       1.396887530609e-02       2.667538809001e+04 
       1.409511525219e-02       2.670544877688e+04 
       1.422139221653e-02       2.673338097989e+04 
       1.434770643043e-02       2.675922113081e+04 
       1.447405814646e-02       2.678298480520e+04 
       1.460044763824e-02       2.680470432260e+04 
       1.472687520028e-02       2.682441331908e+04 
       1.485334114783e-02       2.684212927208e+04 
       1.497984581680e-02       2.685787622265e+04 
       1.510638956365e-02       2.687167837201e+04 
       1.523297276532e-02       2.688357955601e+04 
       1.535959581921e-02       2.689357767668e+04 
       1.548625914316e-02       2.690172266805e+04 
       1.561296317544e-02       2.690802857113e+04 
       1.573970837476e-02       2.691252541534e+04 
       1.586649522036e-02       2.691522648720e+04 
       1.599332421200e-02       2.691615853712e+04 
       1.612019587013e-02       2.691536660861e+04 
       1.624711073590e-02       2.691283727641e+04 
       1.637406937132e-02       2.690863942128e+04 
       1.650107235942e-02       2.690277585385e+04 
       1.662812030435e-02       2.689524673983e+04 
       1.675521383158e-02       2.688611505767e+04 
       1.688235358810e-02       2.687537077819e+04 
       1.700954024257e-02       2.686305296465e+04 
       1.713677448561e-02       2.684919429393e+04 
       1.726405702998e-02       2.683380881060e+04 
       1.739138861089e-02       2.681690049568e+04 
       1.751876998621e-02       2.679850733029e+04 
       1.764620193679e-02       2.677868670576e+04 
       1.777368526678e-02       2.675737553952e+04 
       1.790122080390e-02       2.673465448392e+04 
       1.802880939982e-02       2.671054318613e+04 
       1.815645193052e-02       2.668508339234e+04 
       1.828414929659e-02       2.665823457626e+04 
       1.841190242372e-02       2.663006892283e+04 
       1.853971226301e-02       2.660058646617e+04 
       1.866757979144e-02       2.656980346514e+04 
       1.879550601231e-02       2.653775771893e+04 
       1.892349195568e-02       2.650449141630e+04 
       1.905153867884e-02       2.646995451990e+04 
       1.917964726682e-02       2.643421576556e+04 
       1.930781883287e-02       2.639732638527e+04 
       1.943605451903e-02       2.635922847503e+04 
       1.956435549665e-02       2.631999073127e+04 
       1.969272296696e-02       2.627962247737e+04 
       1.982115816166e-02       2.623816041940e+04 
       1.994966234352e-02       2.619559152186e+04 
       2.007823680703e-02       2.615195068639e+04 
       2.020688287901e-02       2.610727603969e+04 
       2.033560191934e-02       2.606154378903e+04 
       2.046439532158e-02       2.601483086557e+04 
       2.059326451373e-02       2.596709389422e+04 
       2.072221095896e-02       2.591840789590e+04 
       2.085123615639e-02       2.586876610351e+04 
       2.098034164182e-02       2.581813050057e+04 
       2.110952898860e-02       2.576662766831e+04 
       2.123879980844e-02       2.571417657340e+04 
       2.136815575228e-02       2.566091094079e+04 
       2.149759851118e-02       2.560668318930e+04 
       2.162712981723e-02       2.555168161075e+04 
       2.175675144451e-02       2.549578814190e+04 
       2.188646521006e-02       2.543911304814e+04 
       2.201627297491e-02       2.538162043342e+04 
       2.214617664507e-02       2.532332315035e+04 
       2.227617817266e-02       2.526427631669e+04 
       2.240627955697e-02       2.520450200644e+04 
       2.253648284563e-02       2.514396790844e+04 
       2.266679013577e-02       2.508269145021e+04 
       2.279720357525e-02       2.502069880398e+04 
       2.292772536390e-02       2.495798648266e+04 
       2.305835775480e-02       2.489471781071e+04 
       2.318910305565e-02       2.483075640832e+04 
       2.331996363011e-02       2.476611179034e+04 
       2.345094189923e-02       2.470081284123e+04 
       2.358204034291e-02       2.463493826771e+04 
       2.371326150144e-02       2.456845993441e+04 
       2.384460797701e-02       2.450136406430e+04 
       2.397608243537e-02       2.443374089925e+04 
       2.410768760746e-02       2.436550533521e+04 
       2.423942629115e-02       2.429677296415e+04 
       2.437130135298e-02       2.422748022378e+04 
       2.450331573004e-02       2.415763768282e+04 
       2.463547243184e-02       2.408737840113e+04 
       2.476777454224e-02       2.401657495586e+04 
       2.490022522153e-02       2.394533673424e+04 
       2.503282770846e-02       2.387359675643e+04 
       2.516558532244e-02       2.380137242847e+04 
       2.529850146576e-02       2.372875871670e+04 
       2.543157962591e-02       2.365570428527e+04 
       2.556482337795e-02       2.358225990610e+04 
       2.569823638699e-02       2.350838061361e+04 
       2.583182241077e-02       2.343407439186e+04 
       2.596558530229e-02       2.335953930615e+04 
       2.609952901256e-02       2.328450969296e+04 
       2.623365759340e-02       2.320917856161e+04 
       2.636797520046e-02       2.313348814029e+04 
       2.650248609621e-02       2.305744831791e+04 
       2.663719465308e-02       2.298110477075e+04 
       2.677210535681e-02       2.290446999789e+04 
       2.690722280976e-02       2.282748490546e+04 
       2.704255173446e-02       2.275034311402e+04 
       2.717809697730e-02       2.267281975317e+04 
       2.731386351224e-02       2.259505125667e+04 
       2.744985644478e-02       2.251703306737e+04 
       2.758608101606e-02       2.243877581250e+04 
       2.772254260704e-02       2.236023837804e+04 
       2.785924674295e-02       2.228152766464e+04 
       2.799619909783e-02       2.220257434063e+04 
       2.813340549927e-02       2.212341560011e+04 
       2.827087193339e-02       2.204410522650e+04 
       2.840860454994e-02       2.196453489601e+04 
       2.854660966764e-02       2.188483660876e+04 
       2.868489377974e-02       2.180495714746e+04 
       2.882346355980e-02       2.172489307366e+04 
       2.896232586774e-02       2.164468105363e+04 
       2.910148775605e-02       2.156434858479e+04 
       2.924095647637e-02       2.148386339791e+04 
       2.938073948630e-02       2.140321840903e+04 
       2.952084445645e-02       2.132250833840e+04 
       2.966127927790e-02       2.124167103164e+04 
       2.980205206987e-02       2.116069367794e+04 
       2.994317118782e-02       2.107963545041e+04 
       3.008464523185e-02       2.099848290783e+04 
       3.022648305546e-02       2.091729246179e+04 
       3.036869377478e-02       2.083598505082e+04 
       3.051128677813e-02       2.075456472451e+04 
       3.065427173606e-02       2.067313122968e+04 
       3.079765861187e-02       2.059162363074e+04 
       3.094145767255e-02       2.051002462161e+04 
       3.108567950033e-02       2.042843232602e+04 
       3.123033500467e-02       2.034678612180e+04 
       3.137543543495e-02       2.026507708298e+04 
       3.152099239362e-02       2.018337549159e+04 
       3.166701785012e-02       2.010161944697e+04 
       3.181352415544e-02       2.001988949198e+04 
       3.196052405737e-02       1.993807888212e+04 
       3.210803071658e-02       1.985629341466e+04 
       3.225605772344e-02       1.977446435186e+04 
       3.240461911579e-02       1.969269366525e+04 
       3.255372939754e-02       1.961091555800e+04 
       3.270340355831e-02       1.952914283587e+04 
       3.285365709406e-02       1.944739935673e+04 
       3.300450602887e-02       1.936561000645e+04 
       3.315596693784e-02       1.928384961543e+04 
       3.330805697129e-02       1.920218387460e+04 
       3.346079388023e-02       1.912052316400e+04 
       3.361419604333e-02       1.903883188643e+04 
       3.376828249535e-02       1.895723598131e+04 
       3.392307295722e-02       1.887566184751e+04 
       3.407858786781e-02       1.879409918617e+04 
       3.423484841761e-02       1.871261123181e+04 
       3.439187658434e-02       1.863111131391e+04 
       3.454969517074e-02       1.854967590569e+04 
       3.470832784459e-02       1.846834036953e+04 
       3.486779918119e-02       1.838698577634e+04 
       3.502813470848e-02       1.830571140946e+04 
       3.518936095495e-02       1.822444160387e+04 
       3.535150550061e-02       1.814332374363e+04 
       3.551459703121e-02       1.806217692313e+04 
       3.567866539599e-02       1.798108335680e+04 
       3.584374166923e-02       1.790003387383e+04 
       3.600985821588e-02       1.781909181656e+04 
       3.617704876159e-02       1.773817438964e+04 
       3.634534846764e-02       1.765732039828e+04 
       3.651479401088e-02       1.757648603644e+04 
       3.668542366944e-02       1.749569930315e+04 
       3.685727741445e-02       1.741506051987e+04 
       3.703039700841e-02       1.733434835699e+04 
       3.720482611072e-02       1.725374151816e+04 
       3.738061039107e-02       1.717319206811e+04 
       3.755779765134e-02       1.709267410181e+04 
       3.773643795684e-02       1.701218244884e+04 
       3.791658377766e-02       1.693166581072e+04 
       3.809829014120e-02       1.685126302449e+04 
       3.828161479681e-02       1.677086914862e+04 
       3.846661839380e-02       1.669056430725e+04 
       3.865336467415e-02       1.661016021773e+04 
       3.884192068128e-02       1.652988018811e+04 
       3.903235698655e-02       1.644962404942e+04 
       3.922474793538e-02       1.636931237466e+04 
       3.941917191492e-02       1.628901118972e+04 
       3.961571164565e-02       1.620874520234e+04 
       3.981445449946e-02       1.612851039855e+04 
       4.001549284706e-02       1.604819012318e+04 
       4.021892443814e-02       1.596786934559e+04 
       4.042485281778e-02       1.588746802852e+04 
       4.063338778353e-02       1.580708684698e+04 
       4.084464588783e-02       1.572668296633e+04 
       4.105875099118e-02       1.564619029134e+04 
       4.127583487232e-02       1.556560394282e+04 
       4.149603790251e-02       1.548499460799e+04 
       4.171950979202e-02       1.540424555507e+04 
       4.194641041820e-02       1.532338589451e+04 
       4.217691074584e-02       1.524247540760e+04 
       4.241119385234e-02       1.516143551504e+04 
       4.264945607206e-02       1.508019456448e+04 
       4.289190827650e-02       1.499884383014e+04 
       4.313877730992e-02       1.491730037179e+04 
       4.339030760308e-02       1.483553280892e+04 
       4.364676299185e-02       1.475355012912e+04 
       4.390842877192e-02       1.467134405347e+04 
       4.417561402684e-02       1.458891012127e+04 
       4.444865427292e-02       1.450613430235e+04 
       4.472791447322e-02       1.442307200070e+04 
       4.501379248256e-02       1.433971524829e+04 
       4.530672299780e-02       1.425586202657e+04 
       4.560718210244e-02       1.417169983437e+04 
       4.591569251330e-02       1.408702775372e+04 
       4.623282965917e-02       1.400188369297e+04 
       4.655922875015e-02       1.391624161635e+04 
       4.689559303072e-02       1.382995895264e+04 
       4.724270345399e-02       1.374308155935e+04 
       4.760143006928e-02       1.365546075718e+04 
       4.797274548445e-02       1.356706796212e+04 
       4.835774085238e-02       1.347784534101e+04 
       4.875764494204e-02       1.338767235550e+04 
       4.917384699626e-02       1.329642700661e+04 
       4.960792425884e-02       1.320409819757e+04 
       5.006167528350e-02       1.311043504658e+04 
       5.053716043007e-02       1.301535479838e+04 
       5.103675132382e-02       1.291866677070e+04 
       5.156319151923e-02       1.282012494551e+04 
       5.211967118250e-02       1.271953356658e+04 
       5.270991929316e-02       1.261654532632e+04 
       5.333831763956e-02       1.251079802134e+04 
       5.401004166137e-02       1.240187523719e+04 
       5.473123375636e-02       1.228914625147e+04 
       5.550921453341e-02       1.217190550404e+04 
       5.635273565266e-02       1.204922676447e+04 
       5.727227236861e-02       1.191985561901e+04 
       5.828034100252e-02       1.178213252591e+04 
       5.939179995534e-02       1.163396959525e+04 
