# Matter power spectrum P(k) at redshift z=0
# for k=4.20728e-05 to 13.7798 h/Mpc,
# number of wavenumbers equal to 727
#    1:k (h/Mpc)              2:P (Mpc/h)^3        
       4.207284203464e-05       2.927914678911e+03 
       5.484881302592e-05       1.831622741049e+03 
       6.774861165982e-05       1.383140413693e+03 
       8.080615944957e-05       1.170772482010e+03 
       9.405658881131e-05       1.064900487304e+03 
       1.075365455825e-04       1.014726096560e+03 
       1.212845089004e-04       9.971059501234e+02 
       1.353411320809e-04       1.000282910584e+03 
       1.497496081319e-04       1.017783289260e+03 
       1.645560634694e-04       1.045825252953e+03 
       1.798099832257e-04       1.082106556929e+03 
       1.955646712003e-04       1.125191828354e+03 
       2.118777469130e-04       1.174182770416e+03 
       2.288116812797e-04       1.228531196694e+03 
       2.464343710014e-04       1.287928495089e+03 
       2.648197496707e-04       1.352237926208e+03 
       2.840484306329e-04       1.421452052321e+03 
       3.042083725477e-04       1.495665336272e+03 
       3.253955530752e-04       1.575056189767e+03 
       3.477146288607e-04       1.659874955144e+03 
       3.712795507172e-04       1.750435636355e+03 
       3.962140914067e-04       1.847109812971e+03 
       4.226522297097e-04       1.950321666875e+03 
       4.507383189071e-04       2.060543251398e+03 
       4.806269513533e-04       2.178289226782e+03 
       5.124824153097e-04       2.304110408574e+03 
       5.464776285946e-04       2.438585470912e+03 
       5.827924301415e-04       2.582310266978e+03 
       6.216111207229e-04       2.735884291748e+03 
       6.631191739927e-04       2.899894036686e+03 
       7.074990940777e-04       3.074893269175e+03 
       7.549254788991e-04       3.261380593991e+03 
       8.055594564241e-04       3.459775272801e+03 
       8.595427833433e-04       3.670392596110e+03 
       9.169920123757e-04       3.893420642109e+03 
       9.779932186012e-04       4.128900731031e+03 
       1.042597798863e-03       4.376713431926e+03 
       1.110819801309e-03       4.636572153654e+03 
       1.182635101728e-03       4.908025328911e+03 
       1.257982538848e-03       5.190467403488e+03 
       1.336766890912e-03       5.483147201106e+03 
       1.418863367831e-03       5.785190932980e+03 
       1.504123147947e-03       6.095695280048e+03 
       1.592379428527e-03       6.413674453970e+03 
       1.683453483782e-03       6.738118708060e+03 
       1.777160313794e-03       7.068019528853e+03 
       1.873313592522e-03       7.402391296298e+03 
       1.971729753715e-03       7.740288116594e+03 
       2.072231168227e-03       8.080816679434e+03 
       2.174648452834e-03       8.423144370402e+03 
       2.278822006479e-03       8.766504501262e+03 
       2.384602898111e-03       9.110198056431e+03 
       2.491853237415e-03       9.453592657211e+03 
       2.600446152753e-03       9.796120573559e+03 
       2.710265485596e-03       1.013727568337e+04 
       2.821205292416e-03       1.047660918398e+04 
       2.933169226390e-03       1.081372542650e+04 
       3.046069854241e-03       1.114827562975e+04 
       3.159827948975e-03       1.147995681934e+04 
       3.274371787327e-03       1.180850341857e+04 
       3.389636471392e-03       1.213368628039e+04 
       3.505563286775e-03       1.245530618605e+04 
       3.622099104320e-03       1.277319499700e+04 
       3.739195828721e-03       1.308720578454e+04 
       3.856809894651e-03       1.339721876072e+04 
       3.974901809325e-03       1.370312832599e+04 
       4.093435739269e-03       1.400485137114e+04 
       4.212379138435e-03       1.430231775260e+04 
       4.331702414445e-03       1.459547053747e+04 
       4.451378629683e-03       1.488426623218e+04 
       4.571383233967e-03       1.516867252711e+04 
       4.691693825683e-03       1.544866194410e+04 
       4.812289938474e-03       1.572421335303e+04 
       4.933152850768e-03       1.599533683041e+04 
       5.054265415699e-03       1.626202546101e+04 
       5.175611909186e-03       1.646707009231e+04 
       5.297177894161e-03       1.672269470755e+04 
       5.418950099157e-03       1.697387921337e+04 
       5.540916309648e-03       1.722064218303e+04 
       5.663065270734e-03       1.746300838346e+04 
       5.785386599873e-03       1.770099270533e+04 
       5.907870708588e-03       1.793463734385e+04 
       6.030508732104e-03       1.816395067279e+04 
       6.153292466085e-03       1.838897604359e+04 
       6.276214309666e-03       1.860974533679e+04 
       6.399267214098e-03       1.882629137017e+04 
       6.522444636409e-03       1.903864285782e+04 
       6.645740497537e-03       1.924684705968e+04 
       6.769149144452e-03       1.945093588519e+04 
       6.892665315867e-03       1.965094605985e+04 
       7.016284111136e-03       1.984691633310e+04 
       7.140000962031e-03       2.003889100824e+04 
       7.263811607099e-03       2.022689942513e+04 
       7.387712068320e-03       2.041099104867e+04 
       7.511698629864e-03       2.059120727779e+04 
       7.635767818712e-03       2.076758656151e+04 
       7.759916386973e-03       2.094016111411e+04 
       7.884141295725e-03       2.110898661789e+04 
       8.008439700238e-03       2.127409236302e+04 
       8.132808936439e-03       2.143551310653e+04 
       8.257246508518e-03       2.159331378385e+04 
       8.381750077546e-03       2.174752048754e+04 
       8.506317451032e-03       2.189817171056e+04 
       8.630946573320e-03       2.204530690169e+04 
       8.755635516761e-03       2.218896818146e+04 
       8.880382473577e-03       2.232920191690e+04 
       9.005185748373e-03       2.246603939196e+04 
       9.130043751222e-03       2.259952253918e+04 
       9.254954991289e-03       2.272969094986e+04 
       9.379918070939e-03       2.285657965198e+04 
       9.504931680291e-03       2.298023059228e+04 
       9.629994592182e-03       2.310068271407e+04 
       9.755105657500e-03       2.321796561799e+04 
       9.880263800871e-03       2.333211740132e+04 
       1.000546801665e-02       2.344318199892e+04 
       1.013071736521e-02       2.355118744655e+04 
       1.025601096950e-02       2.365617958325e+04 
       1.038134801185e-02       2.375818547746e+04 
       1.050672773099e-02       2.385723986052e+04 
       1.063214941931e-02       2.395338403270e+04 
       1.075761242027e-02       2.404665597465e+04 
       1.088311612603e-02       2.413708243067e+04 
       1.100865997524e-02       2.422469908548e+04 
       1.113424345096e-02       2.430954490252e+04 
       1.125986607873e-02       2.439165112444e+04 
       1.138552742483e-02       2.447105029801e+04 
       1.151122709454e-02       2.454778138035e+04 
       1.163696473068e-02       2.462188086553e+04 
       1.176274001210e-02       2.469336571818e+04 
       1.188855265235e-02       2.476227362428e+04 
       1.201440239847e-02       2.482864842312e+04 
       1.214028902978e-02       2.489251284228e+04 
       1.226621235684e-02       2.495389602395e+04 
       1.239217222043e-02       2.501283918523e+04 
       1.251816849061e-02       2.506936373443e+04 
       1.264420106585e-02       2.512351053593e+04 
       1.277026987228e-02       2.517529442930e+04 
       1.289637486287e-02       2.522476192235e+04 
       1.302251601681e-02       2.527194238573e+04 
       1.314869333883e-02       2.531685649173e+04 
       1.327490685864e-02       2.535953606653e+04 
       1.340115663039e-02       2.540001234503e+04 
       1.352744273216e-02       2.543831167899e+04 
       1.365376526551e-02       2.547446056909e+04 
       1.378012435510e-02       2.550848376224e+04 
       1.390652014825e-02       2.554041630732e+04 
       1.403295281468e-02       2.557028266616e+04 
       1.415942254614e-02       2.559810380282e+04 
       1.428592955615e-02       2.562390934421e+04 
       1.441247407978e-02       2.564772613940e+04 
       1.453905637343e-02       2.566959070629e+04 
       1.466567671463e-02       2.568951389473e+04 
       1.479233540187e-02       2.570753441709e+04 
       1.491903275452e-02       2.572365983273e+04 
       1.504576911267e-02       2.573792881403e+04 
       1.517254483708e-02       2.575036480466e+04 
       1.529936030909e-02       2.576099211689e+04 
       1.542621593062e-02       2.576983625755e+04 
       1.555311212412e-02       2.577691599580e+04 
       1.568004933259e-02       2.578225450756e+04 
       1.580702801961e-02       2.578589193117e+04 
       1.593404866939e-02       2.578783480061e+04 
       1.606111178680e-02       2.578811124944e+04 
       1.618821789750e-02       2.578674333663e+04 
       1.631536754802e-02       2.578375636770e+04 
       1.644256130587e-02       2.577917109809e+04 
       1.656979975971e-02       2.577301649532e+04 
       1.669708351947e-02       2.576530739770e+04 
       1.682441321654e-02       2.575606988447e+04 
       1.695178950399e-02       2.574532508864e+04 
       1.707921305672e-02       2.573309904543e+04 
       1.720668457172e-02       2.571942207326e+04 
       1.733420476831e-02       2.570425891692e+04 
       1.746177438840e-02       2.568771134979e+04 
       1.758939419675e-02       2.566974009455e+04 
       1.771706498126e-02       2.565042084395e+04 
       1.784478755331e-02       2.562972601800e+04 
       1.797256274803e-02       2.560769638585e+04 
       1.810039142470e-02       2.558435506007e+04 
       1.822827446707e-02       2.555973348038e+04 
       1.835621278373e-02       2.553381588506e+04 
       1.848420730854e-02       2.550663741712e+04 
       1.861225900100e-02       2.547824981758e+04 
       1.874036884668e-02       2.544863682786e+04 
       1.886853785770e-02       2.541782083428e+04 
       1.899676707314e-02       2.538583544292e+04 
       1.912505755955e-02       2.535268791466e+04 
       1.925341041144e-02       2.531842869833e+04 
       1.938182675180e-02       2.528302764236e+04 
       1.951030773263e-02       2.524654633033e+04 
       1.963885453549e-02       2.520895715975e+04 
       1.976746837208e-02       2.517035110059e+04 
       1.989615048483e-02       2.513066095912e+04 
       2.002490214752e-02       2.508995867084e+04 
       2.015372466590e-02       2.504830241952e+04 
       2.028261937835e-02       2.500560892241e+04 
       2.041158765659e-02       2.496193386655e+04 
       2.054063090632e-02       2.491735117441e+04 
       2.066975056799e-02       2.487177537682e+04 
       2.079894811752e-02       2.482531162227e+04 
       2.092822506709e-02       2.477797553252e+04 
       2.105758296593e-02       2.472973660057e+04 
       2.118702340111e-02       2.468063819235e+04 
       2.131654799844e-02       2.463071515118e+04 
       2.144615842331e-02       2.457994271682e+04 
       2.157585638156e-02       2.452826799167e+04 
       2.170564362049e-02       2.447590029663e+04 
       2.183552192973e-02       2.442274229790e+04 
       2.196549314231e-02       2.436883006328e+04 
       2.209555913560e-02       2.431412343738e+04 
       2.222572183242e-02       2.425868323148e+04 
       2.235598320210e-02       2.420250003136e+04 
       2.248634526160e-02       2.414570057002e+04 
       2.261681007665e-02       2.408813295073e+04 
       2.274737976299e-02       2.402988858035e+04 
       2.287805648753e-02       2.397105388798e+04 
       2.300884246965e-02       2.391154601472e+04 
       2.313973998252e-02       2.385131209097e+04 
       2.327075135442e-02       2.379056825134e+04 
       2.340187897015e-02       2.372918603873e+04 
       2.353312527244e-02       2.366722970047e+04 
       2.366449276346e-02       2.360473453088e+04 
       2.379598400633e-02       2.354157672408e+04 
       2.392760162673e-02       2.347793332114e+04 
       2.405934831446e-02       2.341374009095e+04 
       2.419122682520e-02       2.334902632661e+04 
       2.432323998221e-02       2.328382724560e+04 
       2.445539067811e-02       2.321811870805e+04 
       2.458768187678e-02       2.315190444165e+04 
       2.472011661522e-02       2.308522681180e+04 
       2.485269800557e-02       2.301811288831e+04 
       2.498542923714e-02       2.295056900348e+04 
       2.511831357855e-02       2.288258839838e+04 
       2.525135437985e-02       2.281414935153e+04 
       2.538455507485e-02       2.274534402390e+04 
       2.551791918345e-02       2.267609928097e+04 
       2.565145031400e-02       2.260650089966e+04 
       2.578515216589e-02       2.253651548670e+04 
       2.591902853207e-02       2.246612699413e+04 
       2.605308330175e-02       2.239549304683e+04 
       2.618732046321e-02       2.232444855593e+04 
       2.632174410663e-02       2.225309733644e+04 
       2.645635842709e-02       2.218139796162e+04 
       2.659116772765e-02       2.210942324411e+04 
       2.672617642256e-02       2.203715863960e+04 
       2.686138904055e-02       2.196462764630e+04 
       2.699681022829e-02       2.189175288240e+04 
       2.713244475394e-02       2.181867499944e+04 
       2.726829751085e-02       2.174535416245e+04 
       2.740437352139e-02       2.167174307603e+04 
       2.754067794095e-02       2.159790058534e+04 
       2.767721606205e-02       2.152379999933e+04 
       2.781399331864e-02       2.144957788595e+04 
       2.795101529056e-02       2.137508445276e+04 
       2.808828770818e-02       2.130043316297e+04 
       2.822581645718e-02       2.122550623499e+04 
       2.836360758359e-02       2.115050656308e+04 
       2.850166729901e-02       2.107528079775e+04 
       2.864000198594e-02       2.099984802554e+04 
       2.877861820353e-02       2.092432392912e+04 
       2.891752269334e-02       2.084862005089e+04 
       2.905672238551e-02       2.077274770855e+04 
       2.919622440509e-02       2.069683996855e+04 
       2.933603607868e-02       2.062075923282e+04 
       2.947616494134e-02       2.054454891912e+04 
       2.961661874378e-02       2.046821822346e+04 
       2.975740545987e-02       2.039177266205e+04 
       2.989853329447e-02       2.031525078189e+04 
       3.004001069165e-02       2.023863680433e+04 
       3.018184634318e-02       2.016199852054e+04 
       3.032404919749e-02       2.008520013232e+04 
       3.046662846894e-02       2.000839273267e+04 
       3.060959364764e-02       1.993150346419e+04 
       3.075295450958e-02       1.985453046968e+04 
       3.089672112731e-02       1.977751331290e+04 
       3.104090388111e-02       1.970044914632e+04 
       3.118551347065e-02       1.962341838317e+04 
       3.133056092725e-02       1.954629027778e+04 
       3.147605762668e-02       1.946913984129e+04 
       3.162201530265e-02       1.939198034094e+04 
       3.176844606086e-02       1.931476016836e+04 
       3.191536239381e-02       1.923753754276e+04 
       3.206277719638e-02       1.916032600927e+04 
       3.221070378211e-02       1.908313862743e+04 
       3.235915590032e-02       1.900592955825e+04 
       3.250814775423e-02       1.892871202700e+04 
       3.265769401982e-02       1.885151004096e+04 
       3.280780986588e-02       1.877429562985e+04 
       3.295851097494e-02       1.869713475011e+04 
       3.310981356551e-02       1.862002089415e+04 
       3.326173441533e-02       1.854285583091e+04 
       3.341429088605e-02       1.846578613845e+04 
       3.356750094917e-02       1.838872887856e+04 
       3.372138321348e-02       1.831165409082e+04 
       3.387595695408e-02       1.823466933190e+04 
       3.403124214294e-02       1.815774941399e+04 
       3.418725948140e-02       1.808082100850e+04 
       3.434403043439e-02       1.800394800866e+04 
       3.450157726682e-02       1.792710679533e+04 
       3.465992308207e-02       1.785035948576e+04 
       3.481909186281e-02       1.777360351774e+04 
       3.497910851437e-02       1.769694097018e+04 
       3.513999891074e-02       1.762031440362e+04 
       3.530178994351e-02       1.754372891640e+04 
       3.546450957387e-02       1.746724067389e+04 
       3.562818688801e-02       1.739077425167e+04 
       3.579285215606e-02       1.731433595557e+04 
       3.595853689500e-02       1.723803452908e+04 
       3.612527393571e-02       1.716172768156e+04 
       3.629309749456e-02       1.708551811797e+04 
       3.646204324999e-02       1.700936291247e+04 
       3.663214842428e-02       1.693323851811e+04 
       3.680345187124e-02       1.685716168989e+04 
       3.697599417002e-02       1.678121116320e+04 
       3.714981772579e-02       1.670522568276e+04 
       3.732496687783e-02       1.662935618364e+04 
       3.750148801561e-02       1.655353512660e+04 
       3.767942970366e-02       1.647770298165e+04 
       3.785884281609e-02       1.640199013765e+04 
       3.803978068147e-02       1.632631024889e+04 
       3.822229923919e-02       1.625067589280e+04 
       3.840645720842e-02       1.617505091743e+04 
       3.859231627073e-02       1.609943722331e+04 
       3.877994126792e-02       1.602394516162e+04 
       3.896940041635e-02       1.594846862700e+04 
       3.916076553971e-02       1.587301811321e+04 
       3.935411232189e-02       1.579749893208e+04 
       3.954952058219e-02       1.572209962717e+04 
       3.974707457526e-02       1.564674191212e+04 
       3.994686331838e-02       1.557130323569e+04 
       4.014898094914e-02       1.549590356020e+04 
       4.035352711689e-02       1.542048937036e+04 
       4.056060741195e-02       1.534506503546e+04 
       4.077033383676e-02       1.526964157107e+04 
       4.098282532408e-02       1.519417190607e+04 
       4.119820830793e-02       1.511867887405e+04 
       4.141661735361e-02       1.504316237289e+04 
       4.163819585436e-02       1.496756871395e+04 
       4.186309680304e-02       1.489190538638e+04 
       4.209148364868e-02       1.481618997483e+04 
       4.232353124913e-02       1.474043230916e+04 
       4.255942693283e-02       1.466451413213e+04 
       4.279937168478e-02       1.458845274444e+04 
       4.304358147440e-02       1.451236803976e+04 
       4.329228874549e-02       1.443612967051e+04 
       4.354574409245e-02       1.435971547187e+04 
       4.380421815071e-02       1.428310366253e+04 
       4.406800373445e-02       1.420634784090e+04 
       4.433741826059e-02       1.412938101382e+04 
       4.461280650532e-02       1.405215797860e+04 
       4.489454374803e-02       1.397469861244e+04 
       4.518303936845e-02       1.389695813488e+04 
       4.547874097526e-02       1.381894575049e+04 
       4.578213916114e-02       1.374055755964e+04 
       4.609377299791e-02       1.366179612363e+04 
       4.641423641065e-02       1.358266441357e+04 
       4.674418559895e-02       1.350310735445e+04 
       4.708434771159e-02       1.342302595468e+04 
       4.743553102777e-02       1.334245539068e+04 
       4.779863695699e-02       1.326129226629e+04 
       4.817467424451e-02       1.317949958417e+04 
       4.856477586362e-02       1.309699199993e+04 
       4.897021919594e-02       1.301372597006e+04 
       4.939245025373e-02       1.292959291588e+04 
       4.983311289274e-02       1.284450307652e+04 
       5.029408421239e-02       1.275838281879e+04 
       5.077751765530e-02       1.267104238362e+04 
       5.128589571680e-02       1.258236911328e+04 
       5.182209467261e-02       1.249218023270e+04 
       5.238946434241e-02       1.240024205479e+04 
       5.299192662503e-02       1.230627899135e+04 
       5.363409733199e-02       1.221004981304e+04 
       5.432143659201e-02       1.211106777191e+04 
       5.506043351985e-02       1.200881600073e+04 
       5.585883032665e-02       1.190266084484e+04 
       5.672588835047e-02       1.179172988011e+04 
       5.767269119411e-02       1.167481547770e+04 
       5.871246387654e-02       1.155041919717e+04 
       5.986085426006e-02       1.141632944212e+04 
       6.113606344168e-02       1.126971521406e+04 
       6.255861528585e-02       1.110668002238e+04 
