# Matter power spectrum P(k) at redshift z=0
# for k=4.20728e-05 to 13.7798 h/Mpc,
# number of wavenumbers equal to 727
#    1:k (h/Mpc)              2:P (Mpc/h)^3        
       4.207284203464e-05       2.927914678911e+03 
       5.484881302592e-05       1.831622741049e+03 
       6.774861165982e-05       1.383140413693e+03 
       8.080615944957e-05       1.170772482010e+03 
       9.405658881131e-05       1.064900487304e+03 
       1.075365455825e-04       1.014726096560e+03 
       1.212845089004e-04       9.971059501234e+02 
       1.353411320809e-04       1.000282910584e+03 
       1.497496081319e-04       1.017783289260e+03 
       1.645560634694e-04       1.045825252953e+03 
       1.798099832257e-04       1.082106556929e+03 
       1.955646712003e-04       1.125191828354e+03 
       2.118777469130e-04       1.174182770416e+03 
       2.288116812797e-04       1.228531196694e+03 
       2.464343710014e-04       1.287928495089e+03 
       2.648197496707e-04       1.352237926208e+03 
       2.840484306329e-04       1.421452052321e+03 
       3.042083725477e-04       1.495665336272e+03 
       3.253955530752e-04       1.575056189767e+03 
       3.477146288607e-04       1.659874955144e+03 
       3.712795507172e-04       1.750435636355e+03 
       3.962140914067e-04       1.847109812971e+03 
       4.226522297097e-04       1.950321666875e+03 
       4.507383189071e-04       2.060543251398e+03 
       4.806269513533e-04       2.178289226782e+03 
       5.124824153097e-04       2.304110408574e+03 
       5.464776285946e-04       2.438585470912e+03 
       5.827924301415e-04       2.582310266978e+03 
       6.216111207229e-04       2.735884291748e+03 
       6.631191739927e-04       2.899894036686e+03 
       7.074990940777e-04       3.074893269175e+03 
       7.549254788991e-04       3.261380593991e+03 
       8.055594564241e-04       3.459775272801e+03 
       8.595427833433e-04       3.670392596110e+03 
       9.169920123757e-04       3.893420642109e+03 
       9.779932186012e-04       4.128900731031e+03 
       1.042597798863e-03       4.376713431926e+03 
       1.110819801309e-03       4.636572153654e+03 
       1.182635101728e-03       4.908025328911e+03 
       1.257982538848e-03       5.190467403488e+03 
       1.336766890912e-03       5.483147201106e+03 
       1.418863367831e-03       5.785190932980e+03 
       1.504123147947e-03       6.095695280048e+03 
       1.592379428527e-03       6.413674453970e+03 
       1.683453483782e-03       6.738118708060e+03 
       1.777160313794e-03       7.068019528853e+03 
       1.873313592522e-03       7.402391296298e+03 
       1.971729753715e-03       7.740288116594e+03 
       2.072231168227e-03       8.080816679434e+03 
       2.174648452834e-03       8.423144370402e+03 
       2.278822006479e-03       8.766504501262e+03 
       2.384602898111e-03       9.110198056431e+03 
       2.491853237415e-03       9.453592657211e+03 
       2.600446152753e-03       9.796120573559e+03 
       2.710265485596e-03       1.013727568337e+04 
       2.821205292416e-03       1.047660918398e+04 
       2.933169226390e-03       1.081372542650e+04 
       3.046069854241e-03       1.114827562975e+04 
       3.159827948975e-03       1.147995681934e+04 
       3.274371787327e-03       1.180850341857e+04 
       3.389636471392e-03       1.213368628039e+04 
       3.505563286775e-03       1.245530618605e+04 
       3.622099104320e-03       1.277319499700e+04 
       3.739195828721e-03       1.308720578454e+04 
       3.856809894651e-03       1.339721876072e+04 
       3.974901809325e-03       1.370312832599e+04 
       4.093435739269e-03       1.400485137114e+04 
       4.212379138435e-03       1.430231775260e+04 
       4.331702414445e-03       1.459547053747e+04 
       4.451378629683e-03       1.488426623218e+04 
       4.571383233967e-03       1.516867252711e+04 
       4.691693825683e-03       1.544866194410e+04 
       4.812289938474e-03       1.572421335303e+04 
       4.933152850768e-03       1.599533683041e+04 
       5.054265415699e-03       1.626202546101e+04 
       5.175611909186e-03       1.652427706003e+04 
       5.297177894161e-03       1.678210634378e+04 
       5.418950099157e-03       1.703551818816e+04 
       5.540916309648e-03       1.728452985436e+04 
       5.663065270734e-03       1.752916482509e+04 
       5.785386599873e-03       1.776943667376e+04 
       5.907870708588e-03       1.800538639247e+04 
       6.030508732104e-03       1.823702102474e+04 
       6.153292466085e-03       1.846438274135e+04 
       6.276214309666e-03       1.868750220675e+04 
       6.399267214098e-03       1.890641103727e+04 
       6.522444636409e-03       1.912113673847e+04 
       6.645740497537e-03       1.933172545589e+04 
       6.769149144452e-03       1.953820793038e+04 
       6.892665315867e-03       1.974061975327e+04 
       7.016284111136e-03       1.993899856322e+04 
       7.140000962031e-03       2.013338759423e+04 
       7.263811607099e-03       2.032381506013e+04 
       7.387712068320e-03       2.051032941238e+04 
       7.511698629864e-03       2.069297101441e+04 
       7.635767818712e-03       2.087177728124e+04 
       7.759916386973e-03       2.104677937665e+04 
       7.884141295725e-03       2.121803207044e+04 
       8.008439700238e-03       2.138556362075e+04 
       8.132808936439e-03       2.154940779619e+04 
       8.257246508518e-03       2.170962872492e+04 
       8.381750077546e-03       2.186625150119e+04 
       8.506317451032e-03       2.201931370307e+04 
       8.630946573320e-03       2.216885388733e+04 
       8.755635516761e-03       2.231491331574e+04 
       8.880382473577e-03       2.245753754002e+04 
       9.005185748373e-03       2.259675696003e+04 
       9.130043751222e-03       2.273261270375e+04 
       9.254954991289e-03       2.286514356291e+04 
       9.379918070939e-03       2.299438375677e+04 
       9.504931680291e-03       2.312037448341e+04 
       9.629994592182e-03       2.324315393821e+04 
       9.755105657500e-03       2.336275093403e+04 
       9.880263800871e-03       2.347920285068e+04 
       1.000546801665e-02       2.359255296160e+04 
       1.013071736521e-02       2.370282855864e+04 
       1.025601096950e-02       2.381007486936e+04 
       1.038134801185e-02       2.391431824803e+04 
       1.050672773099e-02       2.401559277891e+04 
       1.063214941931e-02       2.411393917741e+04 
       1.075761242027e-02       2.420939483655e+04 
       1.088311612603e-02       2.430198585555e+04 
       1.100865997524e-02       2.439174735184e+04 
       1.113424345096e-02       2.447871776266e+04 
       1.125986607873e-02       2.456292776989e+04 
       1.138552742483e-02       2.464440938614e+04 
       1.151122709454e-02       2.472320109747e+04 
       1.163696473068e-02       2.479933892838e+04 
       1.176274001210e-02       2.487283925249e+04 
       1.188855265235e-02       2.494373932887e+04 
       1.201440239847e-02       2.501208263323e+04 
       1.214028902978e-02       2.507789139500e+04 
       1.226621235684e-02       2.514119432109e+04 
       1.239217222043e-02       2.520203229948e+04 
       1.251816849061e-02       2.526042628088e+04 
       1.264420106585e-02       2.531641683304e+04 
       1.277026987228e-02       2.537001832164e+04 
       1.289637486287e-02       2.542127703443e+04 
       1.302251601681e-02       2.547022201093e+04 
       1.314869333883e-02       2.551687354210e+04 
       1.327490685864e-02       2.556126317347e+04 
       1.340115663039e-02       2.560342187128e+04 
       1.352744273216e-02       2.564337569706e+04 
       1.365376526551e-02       2.568115087794e+04 
       1.378012435510e-02       2.571677188892e+04 
       1.390652014825e-02       2.575027360313e+04 
       1.403295281468e-02       2.578168023929e+04 
       1.415942254614e-02       2.581101250538e+04 
       1.428592955615e-02       2.583829985542e+04 
       1.441247407978e-02       2.586356895856e+04 
       1.453905637343e-02       2.588685624501e+04 
       1.466567671463e-02       2.590817228590e+04 
       1.479233540187e-02       2.592755575249e+04 
       1.491903275452e-02       2.594501392599e+04 
       1.504576911267e-02       2.596058546567e+04 
       1.517254483708e-02       2.597429369292e+04 
       1.529936030909e-02       2.598616281816e+04 
       1.542621593062e-02       2.599621826947e+04 
       1.555311212412e-02       2.600447869504e+04 
       1.568004933259e-02       2.601096719856e+04 
       1.580702801961e-02       2.601572399899e+04 
       1.593404866939e-02       2.601875544640e+04 
       1.606111178680e-02       2.602008968072e+04 
       1.618821789750e-02       2.601974872925e+04 
       1.631536754802e-02       2.601775790471e+04 
       1.644256130587e-02       2.601413794363e+04 
       1.656979975971e-02       2.600891787466e+04 
       1.669708351947e-02       2.600211249057e+04 
       1.682441321654e-02       2.599374792996e+04 
       1.695178950399e-02       2.598384535481e+04 
       1.707921305672e-02       2.597243088109e+04 
       1.720668457172e-02       2.595953495468e+04 
       1.733420476831e-02       2.594512190581e+04 
       1.746177438840e-02       2.592929425715e+04 
       1.758939419675e-02       2.591201230244e+04 
       1.771706498126e-02       2.589335228451e+04 
       1.784478755331e-02       2.587328631129e+04 
       1.797256274803e-02       2.585185542603e+04 
       1.810039142470e-02       2.582908287531e+04 
       1.822827446707e-02       2.580500031214e+04 
       1.835621278373e-02       2.577959179728e+04 
       1.848420730854e-02       2.575289273511e+04 
       1.861225900100e-02       2.572495527668e+04 
       1.874036884668e-02       2.569576300594e+04 
       1.886853785770e-02       2.566533848650e+04 
       1.899676707314e-02       2.563371560401e+04 
       1.912505755955e-02       2.560090168342e+04 
       1.925341041144e-02       2.556694760960e+04 
       1.938182675180e-02       2.553182299302e+04 
       1.951030773263e-02       2.549558996058e+04 
       1.963885453549e-02       2.545822070709e+04 
       1.976746837208e-02       2.541980700536e+04 
       1.989615048483e-02       2.538028113835e+04 
       2.002490214752e-02       2.533971569553e+04 
       2.015372466590e-02       2.529816940276e+04 
       2.028261937835e-02       2.525555833819e+04 
       2.041158765659e-02       2.521193872177e+04 
       2.054063090632e-02       2.516738516440e+04 
       2.066975056799e-02       2.512181155849e+04 
       2.079894811752e-02       2.507532401059e+04 
       2.092822506709e-02       2.502793835625e+04 
       2.105758296593e-02       2.497962392408e+04 
       2.118702340111e-02       2.493042453383e+04 
       2.131654799844e-02       2.488037541432e+04 
       2.144615842331e-02       2.482945170225e+04 
       2.157585638156e-02       2.477760017228e+04 
       2.170564362049e-02       2.472503197570e+04 
       2.183552192973e-02       2.467164908950e+04 
       2.196549314231e-02       2.461748799224e+04 
       2.209555913560e-02       2.456250832046e+04 
       2.222572183242e-02       2.450677150370e+04 
       2.235598320210e-02       2.445026817654e+04 
       2.248634526160e-02       2.439312622289e+04 
       2.261681007665e-02       2.433519264893e+04 
       2.274737976299e-02       2.427655973201e+04 
       2.287805648753e-02       2.421731472597e+04 
       2.300884246965e-02       2.415737424352e+04 
       2.313973998252e-02       2.409668513647e+04 
       2.327075135442e-02       2.403546539501e+04 
       2.340187897015e-02       2.397358568335e+04 
       2.353312527244e-02       2.391111089869e+04 
       2.366449276346e-02       2.384807675395e+04 
       2.379598400633e-02       2.378435862198e+04 
       2.392760162673e-02       2.372013507146e+04 
       2.405934831446e-02       2.365534151686e+04 
       2.419122682520e-02       2.359000762569e+04 
       2.432323998221e-02       2.352416903315e+04 
       2.445539067811e-02       2.345780156201e+04 
       2.458768187678e-02       2.339090911879e+04 
       2.472011661522e-02       2.332353454028e+04 
       2.485269800557e-02       2.325570524825e+04 
       2.498542923714e-02       2.318742776925e+04 
       2.511831357855e-02       2.311869544143e+04 
       2.525135437985e-02       2.304948653169e+04 
       2.538455507485e-02       2.297989403189e+04 
       2.551791918345e-02       2.290984441476e+04 
       2.565145031400e-02       2.283942423384e+04 
       2.578515216589e-02       2.276859999640e+04 
       2.591902853207e-02       2.269735568571e+04 
       2.605308330175e-02       2.262585020468e+04 
       2.618732046321e-02       2.255391741899e+04 
       2.632174410663e-02       2.248166202902e+04 
       2.645635842709e-02       2.240904245416e+04 
       2.659116772765e-02       2.233613215898e+04 
       2.672617642256e-02       2.226291663130e+04 
       2.686138904055e-02       2.218941966628e+04 
       2.699681022829e-02       2.211556348243e+04 
       2.713244475394e-02       2.204148983087e+04 
       2.726829751085e-02       2.196715872837e+04 
       2.740437352139e-02       2.189252268758e+04 
       2.754067794095e-02       2.181764107829e+04 
       2.767721606205e-02       2.174248715513e+04 
       2.781399331864e-02       2.166719851031e+04 
       2.795101529056e-02       2.159162447732e+04 
       2.808828770818e-02       2.151587938013e+04 
       2.822581645718e-02       2.143984478618e+04 
       2.836360758359e-02       2.136372500840e+04 
       2.850166729901e-02       2.128736581687e+04 
       2.864000198594e-02       2.121078653056e+04 
       2.877861820353e-02       2.113410366116e+04 
       2.891752269334e-02       2.105722829241e+04 
       2.905672238551e-02       2.098017191119e+04 
       2.919622440509e-02       2.090306848868e+04 
       2.933603607868e-02       2.082577967048e+04 
       2.947616494134e-02       2.074834922568e+04 
       2.961661874378e-02       2.067078648744e+04 
       2.975740545987e-02       2.059309708296e+04 
       2.989853329447e-02       2.051531985812e+04 
       3.004001069165e-02       2.043743900931e+04 
       3.018184634318e-02       2.035952277922e+04 
       3.032404919749e-02       2.028143465471e+04 
       3.046662846894e-02       2.020332664275e+04 
       3.060959364764e-02       2.012512552486e+04 
       3.075295450958e-02       2.004682948409e+04 
       3.089672112731e-02       1.996847834516e+04 
       3.104090388111e-02       1.989006928163e+04 
       3.118551347065e-02       1.981168316473e+04 
       3.133056092725e-02       1.973318857941e+04 
       3.147605762668e-02       1.965466095778e+04 
       3.162201530265e-02       1.957611365009e+04 
       3.176844606086e-02       1.949749479582e+04 
       3.191536239381e-02       1.941886291702e+04 
       3.206277719638e-02       1.934023162236e+04 
       3.221070378211e-02       1.926161402377e+04 
       3.235915590032e-02       1.918296404367e+04 
       3.250814775423e-02       1.910429495385e+04 
       3.265769401982e-02       1.902563084899e+04 
       3.280780986588e-02       1.894694359502e+04 
       3.295851097494e-02       1.886829941058e+04 
       3.310981356551e-02       1.878969170285e+04 
       3.326173441533e-02       1.871102174755e+04 
       3.341429088605e-02       1.863243670677e+04 
       3.356750094917e-02       1.855385320264e+04 
       3.372138321348e-02       1.847524107161e+04 
       3.387595695408e-02       1.839670823250e+04 
       3.403124214294e-02       1.831822928439e+04 
       3.418725948140e-02       1.823973049275e+04 
       3.434403043439e-02       1.816127589063e+04 
       3.450157726682e-02       1.808284163605e+04 
       3.465992308207e-02       1.800448994076e+04 
       3.481909186281e-02       1.792611770383e+04 
       3.497910851437e-02       1.784782721948e+04 
       3.513999891074e-02       1.776956066024e+04 
       3.530178994351e-02       1.769132295625e+04 
       3.546450957387e-02       1.761317026100e+04 
       3.562818688801e-02       1.753502667597e+04 
       3.579285215606e-02       1.745689830318e+04 
       3.595853689500e-02       1.737889398310e+04 
       3.612527393571e-02       1.730087071115e+04 
       3.629309749456e-02       1.722293122836e+04 
       3.646204324999e-02       1.714503217692e+04 
       3.663214842428e-02       1.706714962718e+04 
       3.680345187124e-02       1.698930004730e+04 
       3.697599417002e-02       1.691156201861e+04 
       3.714981772579e-02       1.683377348306e+04 
       3.732496687783e-02       1.675608535644e+04 
       3.750148801561e-02       1.667842949574e+04 
       3.767942970366e-02       1.660074578339e+04 
       3.785884281609e-02       1.652316441541e+04 
       3.803978068147e-02       1.644559833651e+04 
       3.822229923919e-02       1.636805960488e+04 
       3.840645720842e-02       1.629051142181e+04 
       3.859231627073e-02       1.621295508397e+04 
       3.877994126792e-02       1.613550047122e+04 
       3.896940041635e-02       1.605804059633e+04 
       3.916076553971e-02       1.598058523183e+04 
       3.935411232189e-02       1.590303878323e+04 
       3.954952058219e-02       1.582558920266e+04 
       3.974707457526e-02       1.574815719590e+04 
       3.994686331838e-02       1.567061914017e+04 
       4.014898094914e-02       1.559309411015e+04 
       4.035352711689e-02       1.551552746095e+04 
       4.056060741195e-02       1.543792241396e+04 
       4.077033383676e-02       1.536028875564e+04 
       4.098282532408e-02       1.528257807651e+04 
       4.119820830793e-02       1.520481180949e+04 
       4.141661735361e-02       1.512698833534e+04 
       4.163819585436e-02       1.504905234382e+04 
       4.186309680304e-02       1.497100959027e+04 
       4.209148364868e-02       1.489287578101e+04 
       4.232353124913e-02       1.481465871303e+04 
       4.255942693283e-02       1.473623802966e+04 
       4.279937168478e-02       1.465762869972e+04 
       4.304358147440e-02       1.457894795966e+04 
       4.329228874549e-02       1.450006283495e+04 
       4.354574409245e-02       1.442094822264e+04 
       4.380421815071e-02       1.434157915346e+04 
       4.406800373445e-02       1.426200561541e+04 
       4.433741826059e-02       1.418215688679e+04 
       4.461280650532e-02       1.410198367207e+04 
       4.489454374803e-02       1.402150121595e+04 
       4.518303936845e-02       1.394065980452e+04 
       4.547874097526e-02       1.385946306405e+04 
       4.578213916114e-02       1.377780128831e+04 
       4.609377299791e-02       1.369567029052e+04 
       4.641423641065e-02       1.361306552918e+04 
       4.674418559895e-02       1.352992378203e+04 
       4.708434771159e-02       1.344613717125e+04 
       4.743553102777e-02       1.336173032624e+04 
       4.779863695699e-02       1.327658863947e+04 
       4.817467424451e-02       1.319066214460e+04 
       4.856477586362e-02       1.310385107426e+04 
       4.897021919594e-02       1.301609523776e+04 
       4.939245025373e-02       1.292726744967e+04 
       4.983311289274e-02       1.283725648464e+04 
       5.029408421239e-02       1.274596383057e+04 
       5.077751765530e-02       1.265317180792e+04 
       5.128589571680e-02       1.255873461409e+04 
       5.182209467261e-02       1.246243126165e+04 
       5.238946434241e-02       1.236398355755e+04 
       5.299192662503e-02       1.226306364952e+04 
       5.363409733199e-02       1.215936765269e+04 
       5.432143659201e-02       1.205233670018e+04 
       5.506043351985e-02       1.194136762063e+04 
       5.585883032665e-02       1.182572416893e+04 
       5.672588835047e-02       1.170441341209e+04 
       5.767269119411e-02       1.157608773889e+04 
       5.871246387654e-02       1.143908620073e+04 
       5.986085426006e-02       1.129101965017e+04 
       6.113606344168e-02       1.112886924443e+04 
       6.255861528585e-02       1.094856646971e+04 
