# Matter power spectrum P(k) at redshift z=0
# for k=1.02769e-05 to 14.1262 h/Mpc,
# number of wavenumbers equal to 737
#    1:k (h/Mpc)              2:P (Mpc/h)^3        
       1.027688815450e-05       5.271784749851e+01 
       2.288626852981e-05       1.142011577645e+02 
       3.553826688294e-05       1.746586924391e+02 
       4.826550139916e-05       2.347107396523e+02 
       6.110110847095e-05       2.947114799197e+02 
       7.407902588386e-05       3.549267711389e+02 
       8.723428470864e-05       4.155840971104e+02 
       1.006033136320e-04       4.768929788933e+02 
       1.142242594870e-04       5.390554469260e+02 
       1.281373277770e-04       6.022723465529e+02 
       1.423851469972e-04       6.667476951650e+02 
       1.570131605229e-04       7.326920578304e+02 
       1.720700497053e-04       8.003253980290e+02 
       1.876081915389e-04       8.698796894158e+02 
       2.036841537755e-04       9.416013882474e+02 
       2.203592295371e-04       1.015753887465e+03 
       2.377000122189e-04       1.092619958216e+03 
       2.557790095851e-04       1.172504237701e+03 
       2.746752932482e-04       1.255735717885e+03 
       2.944751759278e-04       1.342670213836e+03 
       3.152729037052e-04       1.433692764213e+03 
       3.371713436072e-04       1.529219853224e+03 
       3.602826379368e-04       1.629701305383e+03 
       3.847287855627e-04       1.735621702356e+03 
       4.106420967913e-04       1.847501035307e+03 
       4.381654527039e-04       1.965894320803e+03 
       4.674522827177e-04       2.091389785988e+03 
       4.986661572128e-04       2.224605198842e+03 
       5.319798780731e-04       2.366181885576e+03 
       5.675739429777e-04       2.516775906363e+03 
       6.056342646980e-04       2.677046075129e+03 
       6.463490509083e-04       2.847638454312e+03 
       6.899047993191e-04       3.029167311347e+03 
       7.364814413426e-04       3.222192992599e+03 
       7.862467740708e-04       3.427197333901e+03 
       8.393504462807e-04       3.644558190901e+03 
       8.959178910239e-04       3.874524724277e+03 
       9.560446980698e-04       4.117195863854e+03 
       1.019791963661e-03       4.372504071696e+03 
       1.087183118072e-03       4.640206651801e+03 
       1.158202604861e-03       4.919885979831e+03 
       1.232796584089e-03       5.210958847551e+03 
       1.310875592201e-03       5.512694740419e+03 
       1.392318863110e-03       5.824200919509e+03 
       1.476979844949e-03       6.144564454078e+03 
       1.564692363849e-03       6.472779756045e+03 
       1.655276894798e-03       6.807806510654e+03 
       1.748546482367e-03       7.148600062456e+03 
       1.844311980621e-03       7.494134874544e+03 
       1.942386419793e-03       7.843423204588e+03 
       2.042588432058e-03       8.195529567643e+03 
       2.144744765339e-03       8.549580000507e+03 
       2.248691978002e-03       8.904768387877e+03 
       2.354277441162e-03       9.260358715581e+03 
       2.461359785711e-03       9.615684104280e+03 
       2.569808925503e-03       9.970146564961e+03 
       2.679505773192e-03       1.032321179091e+04 
       2.790341746142e-03       1.067440575602e+04 
       2.902218140198e-03       1.102331168997e+04 
       3.015045430930e-03       1.136956176827e+04 
       3.128742546335e-03       1.171283604958e+04 
       3.243236142170e-03       1.205285592461e+04 
       3.358459901002e-03       1.238938146700e+04 
       3.474353868373e-03       1.272220133794e+04 
       3.590863833819e-03       1.305114003398e+04 
       3.707940760369e-03       1.337604474672e+04 
       3.825540263367e-03       1.369679011021e+04 
       3.943622137521e-03       1.401326601748e+04 
       4.062149929913e-03       1.432538559691e+04 
       4.181090555981e-03       1.463307797092e+04 
       4.300413955138e-03       1.493628345458e+04 
       4.420092782590e-03       1.523495842688e+04 
       4.540102133926e-03       1.552906585882e+04 
       4.660419299253e-03       1.581858892158e+04 
       4.781023543799e-03       1.610349912139e+04 
       4.901895912185e-03       1.638380290648e+04 
       5.023019053791e-03       1.665950544498e+04 
       5.144377066895e-03       1.693059998190e+04 
       5.265955359489e-03       1.719710253929e+04 
       5.387740524923e-03       1.745902310318e+04 
       5.509720230693e-03       1.771637760976e+04 
       5.631883118905e-03       1.796919313348e+04 
       5.754218717105e-03       1.821748686891e+04 
       5.876717358306e-03       1.846128999036e+04 
       5.999370109201e-03       1.870063513814e+04 
       6.122168705631e-03       1.893555160742e+04 
       6.245105494534e-03       1.916606707909e+04 
       6.368173381639e-03       1.939222492854e+04 
       6.491365784300e-03       1.961405026540e+04 
       6.614676588906e-03       1.983159158409e+04 
       6.738100112378e-03       2.004488497973e+04 
       6.861631067322e-03       2.025396376237e+04 
       6.985264530451e-03       2.045887081444e+04 
       7.108995913939e-03       2.065964575752e+04 
       7.232820939403e-03       2.085632261762e+04 
       7.356735614247e-03       2.104894901776e+04 
       7.480736210125e-03       2.123756606971e+04 
       7.604819243313e-03       2.142222046733e+04 
       7.728981456808e-03       2.160293490193e+04 
       7.853219803976e-03       2.177976819970e+04 
       7.977531433597e-03       2.195275579048e+04 
       8.101913676191e-03       2.212192171034e+04 
       8.226364031478e-03       2.228733927748e+04 
       8.350880156885e-03       2.244903914508e+04 
       8.475459856999e-03       2.260705366354e+04 
       8.600101073875e-03       2.276143176891e+04 
       8.724801878116e-03       2.291220475570e+04 
       8.849560460678e-03       2.305942406818e+04 
       8.974375125309e-03       2.320312570858e+04 
       9.099244281581e-03       2.334335182924e+04 
       9.224166438464e-03       2.348014419151e+04 
       9.349140198389e-03       2.361353655792e+04 
       9.474164251763e-03       2.374356864805e+04 
       9.599237371894e-03       2.387028757074e+04 
       9.724358410302e-03       2.399371467972e+04 
       9.849526292368e-03       2.411390207007e+04 
       9.974740013305e-03       2.423088486248e+04 
       1.009999863443e-02       2.434469187557e+04 
       1.022530127970e-02       2.445537560335e+04 
       1.035064713248e-02       2.456296287109e+04 
       1.047603543259e-02       2.466748245157e+04 
       1.060146547350e-02       2.476898134452e+04 
       1.072693659978e-02       2.486749487340e+04 
       1.085244820467e-02       2.496303799826e+04 
       1.097799972790e-02       2.505568303727e+04 
       1.110359065357e-02       2.514543703061e+04 
       1.122922050825e-02       2.523233834333e+04 
       1.135488885918e-02       2.531642771374e+04 
       1.148059531260e-02       2.539773020787e+04 
       1.160633951217e-02       2.547629177604e+04 
       1.173212113759e-02       2.555213294312e+04 
       1.185793990318e-02       2.562528878306e+04 
       1.198379555668e-02       2.569579019473e+04 
       1.210968787805e-02       2.576367680374e+04 
       1.223561667841e-02       2.582897780900e+04 
       1.236158179903e-02       2.589171425984e+04 
       1.248758311041e-02       2.595194347072e+04 
       1.261362051136e-02       2.600966677765e+04 
       1.273969392828e-02       2.606494253180e+04 
       1.286580331432e-02       2.611779437257e+04 
       1.299194864878e-02       2.616824417550e+04 
       1.311812993641e-02       2.621633214307e+04 
       1.324434720688e-02       2.626208661202e+04 
       1.337060051416e-02       2.630552603296e+04 
       1.349688993612e-02       2.634670136435e+04 
       1.362321557401e-02       2.638562107417e+04 
       1.374957755205e-02       2.642231444013e+04 
       1.387597601711e-02       2.645681867699e+04 
       1.400241113828e-02       2.648917065848e+04 
       1.412888310665e-02       2.651937595028e+04 
       1.425539213497e-02       2.654748617180e+04 
       1.438193845746e-02       2.657351109122e+04 
       1.450852232955e-02       2.659748284897e+04 
       1.463514402772e-02       2.661943481166e+04 
       1.476180384933e-02       2.663938479064e+04 
       1.488850211250e-02       2.665736471682e+04 
       1.501523915599e-02       2.667339981479e+04 
       1.514201533913e-02       2.668751248297e+04 
       1.526883104172e-02       2.669973918312e+04 
       1.539568666406e-02       2.671008930009e+04 
       1.552258262685e-02       2.671859014641e+04 
       1.564951937129e-02       2.672526635914e+04 
       1.577649735901e-02       2.673017794633e+04 
       1.590351707217e-02       2.673329780973e+04 
       1.603057901353e-02       2.673468233806e+04 
       1.615768370647e-02       2.673432681909e+04 
       1.628483169519e-02       2.673229861199e+04 
       1.641202354473e-02       2.672857783739e+04 
       1.653925984117e-02       2.672320898576e+04 
       1.666654119177e-02       2.671622221178e+04 
       1.679386822514e-02       2.670762107685e+04 
       1.692124159142e-02       2.669743348068e+04 
       1.704866196248e-02       2.668569188743e+04 
       1.717613003220e-02       2.667242573677e+04 
       1.730364651662e-02       2.665762837030e+04 
       1.743121215427e-02       2.664136432631e+04 
       1.755882770641e-02       2.662359734991e+04 
       1.768649395732e-02       2.660440664439e+04 
       1.781421171461e-02       2.658377254915e+04 
       1.794198180954e-02       2.656174393394e+04 
       1.806980509738e-02       2.653833852573e+04 
       1.819768245772e-02       2.651356691860e+04 
       1.832561479488e-02       2.648743412102e+04 
       1.845360303829e-02       2.646000248579e+04 
       1.858164814288e-02       2.643125183161e+04 
       1.870975108954e-02       2.640123167388e+04 
       1.883791288551e-02       2.636997298441e+04 
       1.896613456488e-02       2.633745662888e+04 
       1.909441718905e-02       2.630370996417e+04 
       1.922276184722e-02       2.626877601500e+04 
       1.935116965691e-02       2.623266312629e+04 
       1.947964176448e-02       2.619539667599e+04 
       1.960817934571e-02       2.615699364902e+04 
       1.973678360632e-02       2.611744401691e+04 
       1.986545578261e-02       2.607681235841e+04 
       1.999419714203e-02       2.603508333543e+04 
       2.012300898385e-02       2.599231777098e+04 
       2.025189263977e-02       2.594846914713e+04 
       2.038084947462e-02       2.590360850573e+04 
       2.050988088705e-02       2.585774418851e+04 
       2.063898831023e-02       2.581089863213e+04 
       2.076817321263e-02       2.576307013951e+04 
       2.089743709874e-02       2.571431284858e+04 
       2.102678150989e-02       2.566463191747e+04 
       2.115620802507e-02       2.561395569504e+04 
       2.128571826173e-02       2.556243315529e+04 
       2.141531387669e-02       2.551002280171e+04 
       2.154499656702e-02       2.545674883659e+04 
       2.167476807094e-02       2.540261575289e+04 
       2.180463016881e-02       2.534768023149e+04 
       2.193458468408e-02       2.529189745098e+04 
       2.206463348434e-02       2.523534664380e+04 
       2.219477848232e-02       2.517797713918e+04 
       2.232502163698e-02       2.511985348480e+04 
       2.245536495463e-02       2.506100848892e+04 
       2.258581049009e-02       2.500140407380e+04 
       2.271636034783e-02       2.494107515777e+04 
       2.284701668323e-02       2.488007110088e+04 
       2.297778170380e-02       2.481841480064e+04 
       2.310865767050e-02       2.475603344644e+04 
       2.323964689910e-02       2.469301238212e+04 
       2.337075176150e-02       2.462936179595e+04 
       2.350197468720e-02       2.456506927727e+04 
       2.363331816477e-02       2.450012825262e+04 
       2.376478474335e-02       2.443464065742e+04 
       2.389637703422e-02       2.436854464804e+04 
       2.402809771242e-02       2.430191493046e+04 
       2.415994951843e-02       2.423471350715e+04 
       2.429193525988e-02       2.416698509313e+04 
       2.442405781334e-02       2.409874795649e+04 
       2.455632012614e-02       2.402990655149e+04 
       2.468872521832e-02       2.396064082406e+04 
       2.482127618454e-02       2.389083693669e+04 
       2.495397619613e-02       2.382065507792e+04 
       2.508682850320e-02       2.374985042945e+04 
       2.521983643679e-02       2.367868323314e+04 
       2.535300341113e-02       2.360715310955e+04 
       2.548633292595e-02       2.353512196312e+04 
       2.561982856889e-02       2.346267651737e+04 
       2.575349401796e-02       2.338984220028e+04 
       2.588733304414e-02       2.331661153889e+04 
       2.602134951402e-02       2.324304448352e+04 
       2.615554739256e-02       2.316908036628e+04 
       2.628993074593e-02       2.309476562798e+04 
       2.642450374449e-02       2.302009088111e+04 
       2.655927066583e-02       2.294510096620e+04 
       2.669423589794e-02       2.286978816763e+04 
       2.682940394249e-02       2.279417139010e+04 
       2.696477941827e-02       2.271827573606e+04 
       2.710036706469e-02       2.264199132921e+04 
       2.723617174544e-02       2.256555498699e+04 
       2.737219845234e-02       2.248882619379e+04 
       2.750845230922e-02       2.241183695252e+04 
       2.764493857607e-02       2.233454453921e+04 
       2.778166265327e-02       2.225708053800e+04 
       2.791863008601e-02       2.217934007796e+04 
       2.805584656887e-02       2.210144759117e+04 
       2.819331795062e-02       2.202332084973e+04 
       2.833105023915e-02       2.194494885746e+04 
       2.846904960662e-02       2.186638994152e+04 
       2.860732239486e-02       2.178766421455e+04 
       2.874587512092e-02       2.170877157576e+04 
       2.888471448290e-02       2.162975383043e+04 
       2.902384736596e-02       2.155053804162e+04 
       2.916328084867e-02       2.147121474647e+04 
       2.930302220953e-02       2.139169302341e+04 
       2.944307893384e-02       2.131203798047e+04 
       2.958345872079e-02       2.123231473610e+04 
       2.972416949094e-02       2.115244648628e+04 
       2.986521939397e-02       2.107250644098e+04 
       3.000661681674e-02       2.099242057225e+04 
       3.014837039178e-02       2.091222262811e+04 
       3.029048900612e-02       2.083195714434e+04 
       3.043298181050e-02       2.075160811990e+04 
       3.057585822899e-02       2.067118951770e+04 
       3.071912796914e-02       2.059067203120e+04 
       3.086280103247e-02       2.051019264945e+04 
       3.100688772550e-02       2.042949539356e+04 
       3.115139867137e-02       2.034886143018e+04 
       3.129634482189e-02       2.026822595776e+04 
       3.144173747022e-02       2.018738829240e+04 
       3.158758826420e-02       2.010668711854e+04 
       3.173390922028e-02       2.002591180355e+04 
       3.188071273814e-02       1.994502207411e+04 
       3.202801161603e-02       1.986420494634e+04 
       3.217581906696e-02       1.978334483062e+04 
       3.232414873559e-02       1.970246152628e+04 
       3.247301471606e-02       1.962163781901e+04 
       3.262243157076e-02       1.954066756190e+04 
       3.277241434998e-02       1.945985128974e+04 
       3.292297861274e-02       1.937900941623e+04 
       3.307414044863e-02       1.929810753028e+04 
       3.322591650086e-02       1.921726267897e+04 
       3.337832399055e-02       1.913647055090e+04 
       3.353138074242e-02       1.905561910332e+04 
       3.368510521184e-02       1.897485826216e+04 
       3.383951651341e-02       1.889410112701e+04 
       3.399463445126e-02       1.881337593078e+04 
       3.415047955098e-02       1.873271843384e+04 
       3.430707309345e-02       1.865206642619e+04 
       3.446443715075e-02       1.857143086619e+04 
       3.462259462404e-02       1.849084001830e+04 
       3.478156928391e-02       1.841035631585e+04 
       3.494138581308e-02       1.832985241090e+04 
       3.510206985177e-02       1.824939491293e+04 
       3.526364804591e-02       1.816897435164e+04 
       3.542614809842e-02       1.808865616255e+04 
       3.558959882374e-02       1.800835345747e+04 
       3.575403020597e-02       1.792803012007e+04 
       3.591947346074e-02       1.784780277512e+04 
       3.608596110129e-02       1.776767224100e+04 
       3.625352700894e-02       1.768753546424e+04 
       3.642220650847e-02       1.760743270192e+04 
       3.659203644859e-02       1.752742978938e+04 
       3.676305528818e-02       1.744742965476e+04 
       3.693530318866e-02       1.736747010537e+04 
       3.710882211291e-02       1.728759702046e+04 
       3.728365593160e-02       1.720768989064e+04 
       3.745985053727e-02       1.712783630051e+04 
       3.763745396713e-02       1.704804079858e+04 
       3.781651653508e-02       1.696834739137e+04 
       3.799709097416e-02       1.688864842378e+04 
       3.817923259006e-02       1.680897490490e+04 
       3.836299942696e-02       1.672926005717e+04 
       3.854845244683e-02       1.664961091523e+04 
       3.873565572349e-02       1.657000379291e+04 
       3.892467665291e-02       1.649038657749e+04 
       3.911558618141e-02       1.641081412588e+04 
       3.930845905359e-02       1.633122289349e+04 
       3.950337408209e-02       1.625158602734e+04 
       3.970041444133e-02       1.617193034176e+04 
       3.989966798813e-02       1.609231791778e+04 
       4.010122761184e-02       1.601270318248e+04 
       4.030519161749e-02       1.593300892995e+04 
       4.051166414560e-02       1.585329597067e+04 
       4.072075563302e-02       1.577357422463e+04 
       4.093258331944e-02       1.569370852793e+04 
       4.114727180530e-02       1.561382707196e+04 
       4.136495366713e-02       1.553387168471e+04 
       4.158577013767e-02       1.545387801775e+04 
       4.180987185896e-02       1.537371702246e+04 
       4.203741971776e-02       1.529345847540e+04 
       4.226858577430e-02       1.521312748586e+04 
       4.250355429686e-02       1.513260933833e+04 
       4.274252291686e-02       1.505196541236e+04 
       4.298570392122e-02       1.497111748625e+04 
       4.323332570187e-02       1.489011158951e+04 
       4.348563438544e-02       1.480892003173e+04 
       4.374289567005e-02       1.472744883065e+04 
       4.400539690106e-02       1.464573961706e+04 
       4.427344942327e-02       1.456375273586e+04 
       4.454739125389e-02       1.448151485609e+04 
       4.482759012913e-02       1.439889607273e+04 
       4.511444698710e-02       1.431596295224e+04 
       4.540839996253e-02       1.423264746709e+04 
       4.570992898356e-02       1.414886385734e+04 
       4.601956107981e-02       1.406465892814e+04 
       4.633787653389e-02       1.397989062964e+04 
       4.666551603706e-02       1.389462289508e+04 
       4.700318904553e-02       1.380872651422e+04 
       4.735168357843e-02       1.372219208101e+04 
       4.771187775413e-02       1.363491407196e+04 
       4.808475343277e-02       1.354686861792e+04 
       4.847141242150e-02       1.345790020661e+04 
       4.887309581263e-02       1.336801009577e+04 
       4.929120716905e-02       1.327702541665e+04 
       4.972734045478e-02       1.318488567666e+04 
       5.018331384314e-02       1.309141229272e+04 
       5.066121083278e-02       1.299646212892e+04 
       5.116343047913e-02       1.289987368766e+04 
       5.169274902188e-02       1.280141855352e+04 
       5.225239577090e-02       1.270087918411e+04 
       5.284614680753e-02       1.259785840602e+04 
       5.347844083776e-02       1.249203000803e+04 
       5.415452230839e-02       1.238295303882e+04 
       5.488061743399e-02       1.226998915948e+04 
       5.566414857146e-02       1.215243397820e+04 
       5.651399036154e-02       1.202932168845e+04 
       5.744076516320e-02       1.189940092915e+04 
       5.845716170073e-02       1.176093925974e+04 
       5.957823293504e-02       1.161183323695e+04 
