# Matter power spectrum P(k) at redshift z=0
# for k=1.02769e-05 to 14.0902 h/Mpc,
# number of wavenumbers equal to 736
#    1:k (h/Mpc)              2:P (Mpc/h)^3        
       1.027688865586e-05       5.272203687216e+01 
       2.289289486546e-05       1.142421565671e+02 
       3.555157234690e-05       1.747356811207e+02 
       4.828559085020e-05       2.348236488568e+02 
       6.112813957579e-05       2.948606498349e+02 
       7.411321110878e-05       3.551128797916e+02 
       8.727589408975e-05       4.158081318353e+02 
       1.006526783680e-04       4.771562264855e+02 
       1.142817764125e-04       5.393595075392e+02 
       1.282034647870e-04       6.026191406396e+02 
       1.424604495091e-04       6.671394880874e+02 
       1.570982590735e-04       7.331314797587e+02 
       1.721656687932e-04       8.008154833508e+02 
       1.877151598345e-04       8.704239071553e+02 
       2.038034158241e-04       9.422036841875e+02 
       2.204918590858e-04       1.016418734891e+03 
       2.378472272876e-04       1.093352410414e+03 
       2.559421893835e-04       1.173309986849e+03 
       2.748559970039e-04       1.256621156334e+03 
       2.946751636262e-04       1.343642508434e+03 
       3.154941586470e-04       1.434759926732e+03 
       3.374160965482e-04       1.530390807842e+03 
       3.605533923787e-04       1.630985965297e+03 
       3.850283434970e-04       1.737031034617e+03 
       4.109735838559e-04       1.849047105749e+03 
       4.385323412838e-04       1.967590336629e+03 
       4.678584110157e-04       2.093250093036e+03 
       4.991157417604e-04       2.226645238045e+03 
       5.324775165976e-04       2.368418092084e+03 
       5.681246040799e-04       2.519225547948e+03 
       6.062432605648e-04       2.679727002617e+03 
       6.470219894568e-04       2.850568724928e+03 
       6.906475129342e-04       3.032364743925e+03 
       7.372998908912e-04       3.225674589157e+03 
       7.871469292098e-04       3.430978622173e+03 
       8.403381460970e-04       3.648652510830e+03 
       8.969986923876e-04       3.878942473858e+03 
       9.572237221261e-04       4.121943822490e+03 
       1.021073752886e-03       4.377584805741e+03 
       1.088571516596e-03       4.645618155732e+03 
       1.159700672941e-03       4.925621431681e+03 
       1.234406553913e-03       5.217006800614e+03 
       1.312598867215e-03       5.519039432502e+03 
       1.394156057967e-03       5.830819718210e+03 
       1.478930858851e-03       6.151437694361e+03 
       1.566756477436e-03       6.479883167966e+03 
       1.657452879865e-03       6.815114980211e+03 
       1.750832714526e-03       7.156088550562e+03 
       1.846706546930e-03       7.501779429761e+03 
       1.944887215781e-03       7.851201712986e+03 
       2.045193244947e-03       8.203422591329e+03 
       2.147451342314e-03       8.557571197807e+03 
       2.251498079833e-03       8.912845043135e+03 
       2.357180882496e-03       9.268511827880e+03 
       2.464358463819e-03       9.623908755048e+03 
       2.572900839488e-03       9.978441082239e+03 
       2.682689035561e-03       1.033157851170e+04 
       2.793614588499e-03       1.068285044159e+04 
       2.905578914542e-03       1.103184318912e+04 
       3.018492607781e-03       1.137819147319e+04 
       3.132274710678e-03       1.172157792387e+04 
       3.246851987970e-03       1.206172541652e+04 
       3.362158224866e-03       1.239839553704e+04 
       3.478133562794e-03       1.273137844490e+04 
       3.594723880287e-03       1.306049939862e+04 
       3.711880222590e-03       1.338560616518e+04 
       3.829558280711e-03       1.370657356015e+04 
       3.947717918799e-03       1.402329171777e+04 
       4.066322747539e-03       1.433567349630e+04 
       4.185339740535e-03       1.464364767159e+04 
       4.304738890347e-03       1.494715382488e+04 
       4.424492900706e-03       1.524614836423e+04 
       4.544576911503e-03       1.554059292662e+04 
       4.664968253284e-03       1.583047068018e+04 
       4.785646228202e-03       1.611575090023e+04 
       4.906591914607e-03       1.639644113009e+04 
       5.027787992703e-03       1.667254406409e+04 
       5.149218588954e-03       1.688425203890e+04 
       5.270869137154e-03       1.714885821261e+04 
       5.392726254282e-03       1.740886928707e+04 
       5.514777629497e-03       1.766430175947e+04 
       5.637011924786e-03       1.791518310704e+04 
       5.759418685954e-03       1.816153058188e+04 
       5.881988262807e-03       1.840337571516e+04 
       6.004711737493e-03       1.864075334373e+04 
       6.127580860096e-03       1.887368894658e+04 
       6.250587990691e-03       1.910221564484e+04 
       6.373726047140e-03       1.932637341594e+04 
       6.496988458015e-03       1.954619220282e+04 
       6.620369120086e-03       1.976172112260e+04 
       6.743862359894e-03       1.997298788304e+04 
       6.867462898968e-03       2.018003759885e+04 
       6.991165822308e-03       2.038290957980e+04 
       7.114966549791e-03       2.058164559322e+04 
       7.238860810208e-03       2.077627888108e+04 
       7.362844617641e-03       2.096686035600e+04 
       7.486914249977e-03       2.115343416062e+04 
       7.611066229314e-03       2.133604299776e+04 
       7.735297304089e-03       2.151471702624e+04 
       7.859604432761e-03       2.168950707672e+04 
       7.983984768882e-03       2.186045630425e+04 
       8.108435647447e-03       2.202758988960e+04 
       8.232954572378e-03       2.219097932365e+04 
       8.357539205055e-03       2.235065588670e+04 
       8.482187353783e-03       2.250665776296e+04 
       8.606896964117e-03       2.265902643184e+04 
       8.731666109969e-03       2.280779695345e+04 
       8.856492985413e-03       2.295302617842e+04 
       8.981375897145e-03       2.309474205833e+04 
       9.106313257529e-03       2.323299530592e+04 
       9.231303578180e-03       2.336781948943e+04 
       9.356345464036e-03       2.349925364979e+04 
       9.481437607886e-03       2.362733685565e+04 
       9.606578785303e-03       2.375211995854e+04 
       9.731767849961e-03       2.387362079054e+04 
       9.857003729294e-03       2.399189413209e+04 
       9.982285420476e-03       2.410696516072e+04 
       1.010761198669e-02       2.421888063384e+04 
       1.023298255369e-02       2.432767777924e+04 
       1.035839630655e-02       2.443339102549e+04 
       1.048385248673e-02       2.453605645383e+04 
       1.060935038927e-02       2.463571413656e+04 
       1.073488936027e-02       2.473239816405e+04 
       1.086046879442e-02       2.482614117515e+04 
       1.098608813284e-02       2.491698674504e+04 
       1.111174686100e-02       2.500496813714e+04 
       1.123744450677e-02       2.509011929846e+04 
       1.136318063865e-02       2.517246591840e+04 
       1.148895486411e-02       2.525206141860e+04 
       1.161476682800e-02       2.532892974952e+04 
       1.174061621116e-02       2.540310126546e+04 
       1.186650272904e-02       2.547461166530e+04 
       1.199242613046e-02       2.554349803367e+04 
       1.211838619644e-02       2.560979436249e+04 
       1.224438273914e-02       2.567352464591e+04 
       1.237041560085e-02       2.573473221347e+04 
       1.249648465304e-02       2.579344224004e+04 
       1.262258979551e-02       2.584968739907e+04 
       1.274873095559e-02       2.590351592942e+04 
       1.287490808738e-02       2.595493208175e+04 
       1.300112117109e-02       2.600398219537e+04 
       1.312737021239e-02       2.605070019347e+04 
       1.325365524180e-02       2.609510774244e+04 
       1.337997631422e-02       2.613723264959e+04 
       1.350633350835e-02       2.617710638487e+04 
       1.363272692631e-02       2.621476484691e+04 
       1.375915669318e-02       2.625022961806e+04 
       1.388562295665e-02       2.628352219018e+04 
       1.401212588668e-02       2.631468317243e+04 
       1.413866567518e-02       2.634374298932e+04 
       1.426524253572e-02       2.637070472086e+04 
       1.439185670335e-02       2.639562170657e+04 
       1.451850843431e-02       2.641851510136e+04 
       1.464519800592e-02       2.643939729230e+04 
       1.477192571636e-02       2.645831496431e+04 
       1.489869188455e-02       2.647529224030e+04 
       1.502549685008e-02       2.649033976872e+04 
       1.515234097310e-02       2.650349440763e+04 
       1.527922463424e-02       2.651477589194e+04 
       1.540614823462e-02       2.652421602973e+04 
       1.553311219578e-02       2.653183342397e+04 
       1.566011695973e-02       2.653765914657e+04 
       1.578716298895e-02       2.654171290895e+04 
       1.591425076646e-02       2.654402034507e+04 
       1.604138079585e-02       2.654461011194e+04 
       1.616855360137e-02       2.654349760984e+04 
       1.629576972807e-02       2.654072315974e+04 
       1.642302974188e-02       2.653628179903e+04 
       1.655033422975e-02       2.653022612388e+04 
       1.667768379983e-02       2.652255253680e+04 
       1.680507908163e-02       2.651330443824e+04 
       1.693252072620e-02       2.650249980137e+04 
       1.706000940634e-02       2.649018197458e+04 
       1.718754581685e-02       2.647630782685e+04 
       1.731513067473e-02       2.646097721182e+04 
       1.744276471945e-02       2.644417241483e+04 
       1.757044871324e-02       2.642591882290e+04 
       1.769818344139e-02       2.640625406495e+04 
       1.782596971248e-02       2.638516611041e+04 
       1.795380835881e-02       2.636269930322e+04 
       1.808170023666e-02       2.633889806099e+04 
       1.820964622668e-02       2.631372489727e+04 
       1.833764723425e-02       2.628723171152e+04 
       1.846570418988e-02       2.625948926408e+04 
       1.859381804960e-02       2.623041906799e+04 
       1.872198979542e-02       2.620011688358e+04 
       1.885022043572e-02       2.616858527818e+04 
       1.897851100575e-02       2.613579677820e+04 
       1.910686256808e-02       2.610189213873e+04 
       1.923527621312e-02       2.606674278617e+04 
       1.936375305961e-02       2.603046960725e+04 
       1.949229425516e-02       2.599306001738e+04 
       1.962090097682e-02       2.595454487639e+04 
       1.974957443160e-02       2.591489673156e+04 
       1.987831585713e-02       2.587419594044e+04 
       2.000712652221e-02       2.583245452578e+04 
       2.013600772747e-02       2.578963905551e+04 
       2.026496080601e-02       2.574584168677e+04 
       2.039398712410e-02       2.570099982178e+04 
       2.052308808183e-02       2.565522036821e+04 
       2.065226511389e-02       2.560843236902e+04 
       2.078151969025e-02       2.556073402100e+04 
       2.091085331696e-02       2.551206408280e+04 
       2.104026753694e-02       2.546250258638e+04 
       2.116976393078e-02       2.541206722775e+04 
       2.129934411760e-02       2.536073577632e+04 
       2.142900975590e-02       2.530855296114e+04 
       2.155876254448e-02       2.525553603468e+04 
       2.168860422334e-02       2.520165088418e+04 
       2.181853657463e-02       2.514704011535e+04 
       2.194856142365e-02       2.509152548631e+04 
       2.207868063987e-02       2.503529403317e+04 
       2.220889613795e-02       2.497831012335e+04 
       2.233920987883e-02       2.492054589910e+04 
       2.246962387084e-02       2.486206888520e+04 
       2.260014017085e-02       2.480287850593e+04 
       2.273076088545e-02       2.474297345632e+04 
       2.286148817218e-02       2.468242033405e+04 
       2.299232424076e-02       2.462122860082e+04 
       2.312327135443e-02       2.455935162182e+04 
       2.325433183125e-02       2.449678014956e+04 
       2.338550804552e-02       2.443362627954e+04 
       2.351680242915e-02       2.436983494905e+04 
       2.364821747321e-02       2.430547433897e+04 
       2.377975572938e-02       2.424055964561e+04 
       2.391141981156e-02       2.417501047806e+04 
       2.404321239745e-02       2.410900922415e+04 
       2.417513623029e-02       2.404233672357e+04 
       2.430719412051e-02       2.397525320387e+04 
       2.443938894755e-02       2.390772164076e+04 
       2.457172366171e-02       2.383945627794e+04 
       2.470420128603e-02       2.377081487775e+04 
       2.483682491829e-02       2.370173192016e+04 
       2.496959773298e-02       2.363215805573e+04 
       2.510252298349e-02       2.356216119552e+04 
       2.523560400420e-02       2.349171973055e+04 
       2.536884421277e-02       2.342089070107e+04 
       2.550224711245e-02       2.334960501669e+04 
       2.563581629449e-02       2.327793304074e+04 
       2.576955544062e-02       2.320588123274e+04 
       2.590346832561e-02       2.313341189013e+04 
       2.603755881996e-02       2.306060573067e+04 
       2.617183089264e-02       2.298751391157e+04 
       2.630628861395e-02       2.291402093959e+04 
       2.644093615848e-02       2.284020236645e+04 
       2.657577780815e-02       2.276604717058e+04 
       2.671081795542e-02       2.269157839008e+04 
       2.684606110656e-02       2.261690904808e+04 
       2.698151188506e-02       2.254186636630e+04 
       2.711717503518e-02       2.246660722440e+04 
       2.725305542560e-02       2.239101213316e+04 
       2.738915805325e-02       2.231522041750e+04 
       2.752548804724e-02       2.223914067526e+04 
       2.766205067297e-02       2.216288208107e+04 
       2.779885133640e-02       2.208631275399e+04 
       2.793589558844e-02       2.200961372346e+04 
       2.807318912960e-02       2.193268573439e+04 
       2.821073781470e-02       2.185556396594e+04 
       2.834854765789e-02       2.177821085031e+04 
       2.848662483779e-02       2.170067661477e+04 
       2.862497570285e-02       2.162302944632e+04 
       2.876360677696e-02       2.154521889644e+04 
       2.890252476525e-02       2.146721302984e+04 
       2.904173656016e-02       2.138907531984e+04 
       2.918124924772e-02       2.131083271406e+04 
       2.932107011415e-02       2.123240658404e+04 
       2.946120665269e-02       2.115388709457e+04 
       2.960166657077e-02       2.107526209740e+04 
       2.974245779740e-02       2.099652548113e+04 
       2.988358849098e-02       2.091769807164e+04 
       3.002506704741e-02       2.083875479875e+04 
       3.016690210853e-02       2.075970027360e+04 
       3.030910257098e-02       2.068063922515e+04 
       3.045167759542e-02       2.060146088496e+04 
       3.059463661622e-02       2.052220528838e+04 
       3.073798935152e-02       2.044288069730e+04 
       3.088174581380e-02       2.036357161484e+04 
       3.102591632096e-02       2.028420772095e+04 
       3.117051150785e-02       2.020476148773e+04 
       3.131554233842e-02       2.012522172791e+04 
       3.146102011842e-02       2.004574936103e+04 
       3.160695650871e-02       1.996625057657e+04 
       3.175336353920e-02       1.988669045417e+04 
       3.190025362355e-02       1.980709960645e+04 
       3.204763957449e-02       1.972757368700e+04 
       3.219553462004e-02       1.964795556856e+04 
       3.234395242042e-02       1.956833252181e+04 
       3.249290708594e-02       1.948888133070e+04 
       3.264241319571e-02       1.940926002274e+04 
       3.279248581747e-02       1.932972335498e+04 
       3.294314052830e-02       1.925020266277e+04 
       3.309439343657e-02       1.917073580148e+04 
       3.324626120500e-02       1.909123921077e+04 
       3.339876107504e-02       1.901176213822e+04 
       3.355191089252e-02       1.893238967160e+04 
       3.370572913478e-02       1.885292876493e+04 
       3.386023493933e-02       1.877360741455e+04 
       3.401544813413e-02       1.869432244888e+04 
       3.417138926961e-02       1.861506137775e+04 
       3.432807965257e-02       1.853584186435e+04 
       3.448554138210e-02       1.845663514982e+04 
       3.464379738759e-02       1.837758612169e+04 
       3.480287146906e-02       1.829852405776e+04 
       3.496278834000e-02       1.821948275368e+04 
       3.512357367280e-02       1.814053553782e+04 
       3.528525414702e-02       1.806158381241e+04 
       3.544785750077e-02       1.798277788465e+04 
       3.561141258537e-02       1.790393677008e+04 
       3.577594942350e-02       1.782524272892e+04 
       3.594149927129e-02       1.774660179141e+04 
       3.610809468440e-02       1.766797366599e+04 
       3.627576958876e-02       1.758945428738e+04 
       3.644455935590e-02       1.751096523075e+04 
       3.661450088374e-02       1.743256107197e+04 
       3.678563268292e-02       1.735419629445e+04 
       3.695799496925e-02       1.727590359928e+04 
       3.713162976301e-02       1.719762810546e+04 
       3.730658099527e-02       1.711948290307e+04 
       3.748289462237e-02       1.704136513246e+04 
       3.766061874879e-02       1.696321326982e+04 
       3.783980375957e-02       1.688525326004e+04 
       3.802050246296e-02       1.680729046330e+04 
       3.820277024421e-02       1.672930461588e+04 
       3.838666523185e-02       1.665147372538e+04 
       3.857224847722e-02       1.657361433346e+04 
       3.875958414902e-02       1.649580301773e+04 
       3.894873974401e-02       1.641807214150e+04 
       3.913978631570e-02       1.634034945025e+04 
       3.933279872280e-02       1.626261651023e+04 
       3.952785589953e-02       1.618489368440e+04 
       3.972504115006e-02       1.610724972094e+04 
       3.992444246977e-02       1.602960925311e+04 
       4.012615289619e-02       1.595195694221e+04 
       4.033027089302e-02       1.587437005984e+04 
       4.053690077089e-02       1.579666312090e+04 
       4.074615314924e-02       1.571898716673e+04 
       4.095814546408e-02       1.564134201520e+04 
       4.117300252715e-02       1.556362763993e+04 
       4.139085714281e-02       1.548585507098e+04 
       4.161185078980e-02       1.540805799402e+04 
       4.183613437618e-02       1.533019229304e+04 
       4.206386907691e-02       1.525228090061e+04 
       4.229522726491e-02       1.517423324650e+04 
       4.253039354841e-02       1.509619107939e+04 
       4.276956592902e-02       1.501792689951e+04 
       4.301295709761e-02       1.493967676881e+04 
       4.326079588779e-02       1.486121461825e+04 
       4.351332891009e-02       1.478259428052e+04 
       4.377082239400e-02       1.470384365986e+04 
       4.403356426965e-02       1.462489416507e+04 
       4.430186652695e-02       1.454571767459e+04 
       4.457606789655e-02       1.446635795262e+04 
       4.485653690567e-02       1.438672711064e+04 
       4.514367537188e-02       1.430682065380e+04 
       4.543792241046e-02       1.422663444253e+04 
       4.573975904603e-02       1.414610096870e+04 
       4.604971353817e-02       1.406517977264e+04 
       4.636836755367e-02       1.398393213300e+04 
       4.669636334681e-02       1.390222360060e+04 
       4.703441214514e-02       1.382002286496e+04 
       4.738330398262e-02       1.373729718105e+04 
       4.774391927849e-02       1.365403789429e+04 
       4.811724253107e-02       1.357011821674e+04 
       4.850437858548e-02       1.348553415240e+04 
       4.890657204795e-02       1.340017431498e+04 
       4.932523056465e-02       1.331396030028e+04 
       4.976195286743e-02       1.322677570392e+04 
       5.021856272435e-02       1.313861422362e+04 
       5.069715023259e-02       1.304920662215e+04 
       5.120012227020e-02       1.295853643131e+04 
       5.173026439857e-02       1.286636111300e+04 
       5.229081709164e-02       1.277256162235e+04 
       5.288556986495e-02       1.267662707114e+04 
       5.351897765858e-02       1.257849448643e+04 
       5.419630460107e-02       1.247771401859e+04 
       5.492380081059e-02       1.237375665829e+04 
       5.570891765593e-02       1.226600191645e+04 
       5.656056483142e-02       1.215361995511e+04 
       5.748940659926e-02       1.203548871921e+04 
       5.850818073954e-02       1.191007797285e+04 
       5.963199546654e-02       1.177535580886e+04 
