# Matter power spectrum P(k) at redshift z=0
# for k=1.01553e-05 to 13.9443 h/Mpc,
# number of wavenumbers equal to 738
#    1:k (h/Mpc)              2:P (Mpc/h)^3        
       1.015530143590e-05       5.450442313203e+01 
       2.258409464784e-05       1.179130558310e+02 
       3.505376691769e-05       1.802597692823e+02 
       4.759555031766e-05       2.421789321240e+02 
       6.024115963374e-05       3.040311230609e+02 
       7.302305572208e-05       3.660858451330e+02 
       8.597471674774e-05       4.285728478062e+02 
       9.913092068249e-05       4.917030529938e+02 
       1.125280424649e-04       5.556792685713e+02 
       1.262043692560e-04       6.207025876506e+02 
       1.402004372393e-04       6.869767879870e+02 
       1.545593933871e-04       7.547117012617e+02 
       1.693273855141e-04       8.241260505165e+02 
       1.845539837188e-04       8.954500084176e+02 
       2.002926359026e-04       9.689276230622e+02 
       2.166011593860e-04       1.044819201130e+03 
       2.335422695856e-04       1.123403694300e+03 
       2.511841451546e-04       1.204981095035e+03 
       2.696010267279e-04       1.289874860431e+03 
       2.888738432523e-04       1.378434324426e+03 
       3.090908555639e-04       1.471037050900e+03 
       3.303483011146e-04       1.568091038823e+03 
       3.527510162736e-04       1.670036659521e+03 
       3.764130031707e-04       1.777348192080e+03 
       4.014578964972e-04       1.890534676469e+03 
       4.280192721136e-04       2.010139892292e+03 
       4.562407242559e-04       2.136741062372e+03 
       4.862756227006e-04       2.270945928861e+03 
       5.182864474682e-04       2.413387736274e+03 
       5.524435896224e-04       2.564717711745e+03 
       5.889235068117e-04       2.725594553771e+03 
       6.279061367403e-04       2.896670683193e+03 
       6.695715064044e-04       3.078575048439e+03 
       7.140955342382e-04       3.271892751710e+03 
       7.616451075805e-04       3.477141938941e+03 
       8.123726246260e-04       3.694749199989e+03 
       8.664103059082e-04       3.925024830403e+03 
       9.238646848433e-04       4.168140049392e+03 
       9.848117539471e-04       4.424108468799e+03 
       1.049293247982e-03       4.692773686701e+03 
       1.117314472105e-03       4.973804947755e+03 
       1.188843934243e-03       5.266701796505e+03 
       1.263814839264e-03       5.570807225878e+03 
       1.342128286833e-03       5.885304865135e+03 
       1.423657829072e-03       6.209296020669e+03 
       1.508254923256e-03       6.541818428062e+03 
       1.595754775306e-03       6.881842994635e+03 
       1.685982107085e-03       7.228320652152e+03 
       1.778756473331e-03       7.580207857079e+03 
       1.873896874478e-03       7.936487790256e+03 
       1.971225533117e-03       8.296187397969e+03 
       2.070570805766e-03       8.658389093374e+03 
       2.171769278328e-03       9.022239592126e+03 
       2.274667141748e-03       9.386954177412e+03 
       2.379120967506e-03       9.751817327152e+03 
       2.484998007012e-03       1.011618331870e+04 
       2.592176131015e-03       1.047947206472e+04 
       2.700543510403e-03       1.084116678325e+04 
       2.809998122376e-03       1.120080906394e+04 
       2.920447148554e-03       1.155799483715e+04 
       3.031806315842e-03       1.191236977116e+04 
       3.143999217356e-03       1.226362320027e+04 
       3.256956639825e-03       1.261148593493e+04 
       3.370615915195e-03       1.295572247283e+04 
       3.484920307701e-03       1.329613214290e+04 
       3.599818442761e-03       1.363254121707e+04 
       3.715263780646e-03       1.396480384317e+04 
       3.831214135401e-03       1.429279391797e+04 
       3.947631237923e-03       1.461641027433e+04 
       4.064480341073e-03       1.493556460411e+04 
       4.181729864053e-03       1.525018612664e+04 
       4.299351073062e-03       1.556022186560e+04 
       4.417317795064e-03       1.586562463387e+04 
       4.535606161616e-03       1.616636253118e+04 
       4.654194379802e-03       1.646240965885e+04 
       4.773062527498e-03       1.675373969087e+04 
       4.892192370436e-03       1.704038721925e+04 
       5.011567198714e-03       1.726249173748e+04 
       5.131171680656e-03       1.753736735098e+04 
       5.250991732106e-03       1.780752546724e+04 
       5.371014399463e-03       1.807297726265e+04 
       5.491227754925e-03       1.833374276352e+04 
       5.611620802594e-03       1.858984740599e+04 
       5.732183394238e-03       1.884130909250e+04 
       5.852906153639e-03       1.908816716449e+04 
       5.973780408585e-03       1.933044787015e+04 
       6.094798129665e-03       1.956817926505e+04 
       6.215951875130e-03       1.980140672977e+04 
       6.337234741156e-03       2.003015692213e+04 
       6.458640316939e-03       2.025446670320e+04 
       6.580162644093e-03       2.047438641459e+04 
       6.701796179914e-03       2.068994638487e+04 
       6.823535764081e-03       2.090118494238e+04 
       6.945376588460e-03       2.110815613078e+04 
       7.067314169682e-03       2.131088619268e+04 
       7.189344324203e-03       2.150942045658e+04 
       7.311463145613e-03       2.170381217519e+04 
       7.433666983957e-03       2.189409813527e+04 
       7.555952426876e-03       2.208032259492e+04 
       7.678316282380e-03       2.226252242469e+04 
       7.800755563104e-03       2.244075133377e+04 
       7.923267471909e-03       2.261503545702e+04 
       8.045849388681e-03       2.278542820949e+04 
       8.168498858238e-03       2.295198835161e+04 
       8.291213579228e-03       2.311474284617e+04 
       8.413991393931e-03       2.327373866820e+04 
       8.536830278885e-03       2.342900525947e+04 
       8.659728336256e-03       2.358060135988e+04 
       8.782683785895e-03       2.372856774675e+04 
       8.905694958011e-03       2.387294007365e+04 
       9.028760286414e-03       2.401376438597e+04 
       9.151878302279e-03       2.415107743531e+04 
       9.275047628378e-03       2.428492625108e+04 
       9.398266973756e-03       2.441533661214e+04 
       9.521535128790e-03       2.454236579305e+04 
       9.644850960634e-03       2.466603898393e+04 
       9.768213408981e-03       2.478640737434e+04 
       9.891621482144e-03       2.490350191660e+04 
       1.001507425342e-02       2.501735766341e+04 
       1.013857085771e-02       2.512803196687e+04 
       1.026211048838e-02       2.523553698640e+04 
       1.038569239436e-02       2.533992373570e+04 
       1.050931587745e-02       2.544123604412e+04 
       1.063298028976e-02       2.553950108709e+04 
       1.075668503140e-02       2.563474721488e+04 
       1.088042954832e-02       2.572704314654e+04 
       1.100421333023e-02       2.581639894014e+04 
       1.112803590878e-02       2.590283989284e+04 
       1.125189685576e-02       2.598643808767e+04 
       1.137579578146e-02       2.606720692292e+04 
       1.149973233320e-02       2.614517656561e+04 
       1.162370619386e-02       2.622039083850e+04 
       1.174771708059e-02       2.629289107196e+04 
       1.187176474357e-02       2.636269628237e+04 
       1.199584896488e-02       2.642984824845e+04 
       1.211996955745e-02       2.649437604918e+04 
       1.224412636404e-02       2.655632192287e+04 
       1.236831925635e-02       2.661570824102e+04 
       1.249254813417e-02       2.667257767425e+04 
       1.261681292456e-02       2.672694782489e+04 
       1.274111358118e-02       2.677886843733e+04 
       1.286545008356e-02       2.682837522583e+04 
       1.298982243650e-02       2.687548160143e+04 
       1.311423066948e-02       2.692022644186e+04 
       1.323867483615e-02       2.696262994393e+04 
       1.336315501385e-02       2.700273482110e+04 
       1.348767130312e-02       2.704057117512e+04 
       1.361222382733e-02       2.707615740773e+04 
       1.373681273233e-02       2.710952196593e+04 
       1.386143818606e-02       2.714070357044e+04 
       1.398610037830e-02       2.716972633418e+04 
       1.411079952036e-02       2.719661645060e+04 
       1.423553584488e-02       2.722140536094e+04 
       1.436030960561e-02       2.724411608130e+04 
       1.448512107719e-02       2.726478821462e+04 
       1.460997055506e-02       2.728343014779e+04 
       1.473485835529e-02       2.730008619311e+04 
       1.485978481446e-02       2.731477860762e+04 
       1.498475028964e-02       2.732752696968e+04 
       1.510975515825e-02       2.733836286286e+04 
       1.523479981811e-02       2.734730806868e+04 
       1.535988468736e-02       2.735439169726e+04 
       1.548501020448e-02       2.735964168482e+04 
       1.561017682836e-02       2.736306871512e+04 
       1.573538503827e-02       2.736471000456e+04 
       1.586063533401e-02       2.736460889693e+04 
       1.598592823591e-02       2.736274789142e+04 
       1.611126428499e-02       2.735918899996e+04 
       1.623664404308e-02       2.735393921876e+04 
       1.636206809293e-02       2.734702932297e+04 
       1.648753703836e-02       2.733846741871e+04 
       1.661305150446e-02       2.732828219166e+04 
       1.673861213779e-02       2.731652605358e+04 
       1.686421960654e-02       2.730318523436e+04 
       1.698987460079e-02       2.728829014850e+04 
       1.711557783273e-02       2.727188427104e+04 
       1.724133003694e-02       2.725397266677e+04 
       1.736713197061e-02       2.723458642344e+04 
       1.749298441392e-02       2.721372809878e+04 
       1.761888817025e-02       2.719143740041e+04 
       1.774484406654e-02       2.716775178811e+04 
       1.787085295367e-02       2.714266838141e+04 
       1.799691570674e-02       2.711621033176e+04 
       1.812303322548e-02       2.708840658232e+04 
       1.824920643465e-02       2.705929622050e+04 
       1.837543628442e-02       2.702885101692e+04 
       1.850172375080e-02       2.699713908577e+04 
       1.862806983610e-02       2.696414479035e+04 
       1.875447556935e-02       2.692990986206e+04 
       1.888094200681e-02       2.689446869958e+04 
       1.900747023243e-02       2.685786028587e+04 
       1.913406135840e-02       2.682003059526e+04 
       1.926071652564e-02       2.678105146392e+04 
       1.938743690439e-02       2.674092528810e+04 
       1.951422369473e-02       2.669965885394e+04 
       1.964107812723e-02       2.665735079185e+04 
       1.976800146349e-02       2.661390979070e+04 
       1.989499499683e-02       2.656943116352e+04 
       2.002206005290e-02       2.652388505433e+04 
       2.014919799037e-02       2.647734988399e+04 
       2.027641020162e-02       2.642978832529e+04 
       2.040369811346e-02       2.638124830660e+04 
       2.053106318786e-02       2.633173911859e+04 
       2.065850692272e-02       2.628126680816e+04 
       2.078603085267e-02       2.622989440761e+04 
       2.091363654985e-02       2.617759137070e+04 
       2.104132562480e-02       2.612436879371e+04 
       2.116909972728e-02       2.607029723456e+04 
       2.129696054717e-02       2.601533735521e+04 
       2.142490981544e-02       2.595958552323e+04 
       2.155294930501e-02       2.590297491783e+04 
       2.168108083183e-02       2.584557484980e+04 
       2.180930625581e-02       2.578733391441e+04 
       2.193762748192e-02       2.572835989581e+04 
       2.206604646123e-02       2.566862284743e+04 
       2.219456519203e-02       2.560813271137e+04 
       2.232318572099e-02       2.554688366435e+04 
       2.245191014431e-02       2.548501721291e+04 
       2.258074060897e-02       2.542232411478e+04 
       2.270967931395e-02       2.535902747991e+04 
       2.283872851158e-02       2.529507187857e+04 
       2.296789050881e-02       2.523042113583e+04 
       2.309716766864e-02       2.516511716186e+04 
       2.322656241154e-02       2.509925236363e+04 
       2.335607721689e-02       2.503279118879e+04 
       2.348571462454e-02       2.496565009370e+04 
       2.361547723632e-02       2.489801346424e+04 
       2.374536771772e-02       2.482976375949e+04 
       2.387538879953e-02       2.476103984499e+04 
       2.400554327954e-02       2.469168909728e+04 
       2.413583402438e-02       2.462188885805e+04 
       2.426626397131e-02       2.455144308534e+04 
       2.439683613015e-02       2.448068301897e+04 
       2.452755358523e-02       2.440927498972e+04 
       2.465841949742e-02       2.433751897785e+04 
       2.478943710626e-02       2.426526119853e+04 
       2.492060973208e-02       2.419259804624e+04 
       2.505194077830e-02       2.411946866515e+04 
       2.518343373371e-02       2.404593060538e+04 
       2.531509217491e-02       2.397201302196e+04 
       2.544691976875e-02       2.389763870971e+04 
       2.557892027494e-02       2.382307545360e+04 
       2.571109754872e-02       2.374784469129e+04 
       2.584345554358e-02       2.367242446256e+04 
       2.597599831415e-02       2.359664904926e+04 
       2.610873001914e-02       2.352048907365e+04 
       2.624165492441e-02       2.344406130676e+04 
       2.637477740617e-02       2.336731467416e+04 
       2.650810195423e-02       2.329028740017e+04 
       2.664163317545e-02       2.321291410754e+04 
       2.677537579728e-02       2.313529511758e+04 
       2.690933467140e-02       2.305743276816e+04 
       2.704351477759e-02       2.297929942097e+04 
       2.717792122763e-02       2.290089605866e+04 
       2.731255926945e-02       2.282224420942e+04 
       2.744743429136e-02       2.274339000545e+04 
       2.758255182653e-02       2.266435328564e+04 
       2.771791755753e-02       2.258507532040e+04 
       2.785353732120e-02       2.250550742548e+04 
       2.798941711355e-02       2.242591200125e+04 
       2.812556309497e-02       2.234601445688e+04 
       2.826198159562e-02       2.226600982245e+04 
       2.839867912103e-02       2.218580577195e+04 
       2.853566235793e-02       2.210547481130e+04 
       2.867293818029e-02       2.202497599920e+04 
       2.881051365573e-02       2.194431984787e+04 
       2.894839605204e-02       2.186360543164e+04 
       2.908659284407e-02       2.178266980503e+04 
       2.922511172091e-02       2.170169027873e+04 
       2.936396059337e-02       2.162057197390e+04 
       2.950314760174e-02       2.153935513788e+04 
       2.964268112400e-02       2.145807286384e+04 
       2.978256978425e-02       2.137667618046e+04 
       2.992282246163e-02       2.129519393908e+04 
       3.006344829960e-02       2.121365512774e+04 
       3.020445671564e-02       2.113206415561e+04 
       3.034585741139e-02       2.105042926979e+04 
       3.048766038328e-02       2.096875044399e+04 
       3.062987593365e-02       2.088693470681e+04 
       3.077251468235e-02       2.080517527722e+04 
       3.091558757897e-02       2.072335559164e+04 
       3.105910591562e-02       2.064146899916e+04 
       3.120308134030e-02       2.055951346163e+04 
       3.134752587095e-02       2.047765789557e+04 
       3.149245191025e-02       2.039573702918e+04 
       3.163787226105e-02       2.031381910347e+04 
       3.178380014265e-02       2.023189324263e+04 
       3.193024920794e-02       2.014996247651e+04 
       3.207723356130e-02       2.006810233654e+04 
       3.222476777758e-02       1.998615372505e+04 
       3.237286692196e-02       1.990427015099e+04 
       3.252154657095e-02       1.982238782673e+04 
       3.267082283445e-02       1.974048839845e+04 
       3.282071237904e-02       1.965865693707e+04 
       3.297123245257e-02       1.957689284046e+04 
       3.312240091004e-02       1.949515638749e+04 
       3.327423624100e-02       1.941344972927e+04 
       3.342675759852e-02       1.933172905371e+04 
       3.357998482968e-02       1.925012570623e+04 
       3.373393850804e-02       1.916845840625e+04 
       3.388863996781e-02       1.908700135040e+04 
       3.404411134018e-02       1.900543337294e+04 
       3.420037559179e-02       1.892402631520e+04 
       3.435745656549e-02       1.884260148978e+04 
       3.451537902370e-02       1.876127656421e+04 
       3.467416869437e-02       1.868003694293e+04 
       3.483385231989e-02       1.859870926280e+04 
       3.499445770909e-02       1.851763524436e+04 
       3.515601379262e-02       1.843651101963e+04 
       3.531855068192e-02       1.835540423944e+04 
       3.548209973210e-02       1.827443575981e+04 
       3.564669360907e-02       1.819353144098e+04 
       3.581236636114e-02       1.811267334982e+04 
       3.597915349568e-02       1.803183829018e+04 
       3.614709206097e-02       1.795114849226e+04 
       3.631622073399e-02       1.787047922079e+04 
       3.648657991436e-02       1.778982926562e+04 
       3.665821182522e-02       1.770925822568e+04 
       3.683116062147e-02       1.762878982490e+04 
       3.700547250613e-02       1.754829352215e+04 
       3.718119585550e-02       1.746792520349e+04 
       3.735838135400e-02       1.738757386203e+04 
       3.753708213945e-02       1.730731641732e+04 
       3.771735395998e-02       1.722708043215e+04 
       3.789925534347e-02       1.714681112217e+04 
       3.808284778085e-02       1.706668731650e+04 
       3.826819592469e-02       1.698654370058e+04 
       3.845536780446e-02       1.690645992064e+04 
       3.864443506027e-02       1.682640781224e+04 
       3.883547319698e-02       1.674638795517e+04 
       3.902856186078e-02       1.666629921509e+04 
       3.922378514074e-02       1.658635972470e+04 
       3.942123189796e-02       1.650635954076e+04 
       3.962099612539e-02       1.642633502092e+04 
       3.982317734181e-02       1.634632834696e+04 
       4.002788102391e-02       1.626632929056e+04 
       4.023521908080e-02       1.618632703652e+04 
       4.044531037611e-02       1.610626812958e+04 
       4.065828130343e-02       1.602613048787e+04 
       4.087426642159e-02       1.594597533694e+04 
       4.109340915740e-02       1.586578622981e+04 
       4.131586258448e-02       1.578549797388e+04 
       4.154179028800e-02       1.570516521792e+04 
       4.177136732706e-02       1.562471029606e+04 
       4.200478130771e-02       1.554419815606e+04 
       4.224223358221e-02       1.546353825348e+04 
       4.248394059231e-02       1.538272948038e+04 
       4.273013537753e-02       1.530180366657e+04 
       4.298106927283e-02       1.522068930358e+04 
       4.323701382444e-02       1.513944496508e+04 
       4.349826295760e-02       1.505795242675e+04 
       4.376513543615e-02       1.497624836946e+04 
       4.403797766147e-02       1.489424938397e+04 
       4.431716686699e-02       1.481203922973e+04 
       4.460311477573e-02       1.472955050804e+04 
       4.489627180159e-02       1.464667228259e+04 
       4.519713189171e-02       1.456343858387e+04 
       4.550623812721e-02       1.447985497476e+04 
       4.582418922518e-02       1.439583352510e+04 
       4.615164711560e-02       1.431131059420e+04 
       4.648934580601e-02       1.422628188068e+04 
       4.683810179560e-02       1.414067372056e+04 
       4.719882636162e-02       1.405445697458e+04 
       4.757254011875e-02       1.396754519446e+04 
       4.796039035031e-02       1.387989346167e+04 
       4.836367173493e-02       1.379140113340e+04 
       4.878385125160e-02       1.370201098054e+04 
       4.922259824869e-02       1.361151570396e+04 
       4.968182092080e-02       1.351990666734e+04 
       5.016371076556e-02       1.342700212006e+04 
       5.067079700607e-02       1.333263261108e+04 
       5.120601347950e-02       1.323662302748e+04 
       5.177278111848e-02       1.313871803608e+04 
       5.237510988131e-02       1.303863889312e+04 
       5.301772477039e-02       1.293601959709e+04 
       5.370622127366e-02       1.283035249581e+04 
       5.444725583771e-02       1.272114694421e+04 
       5.524877612197e-02       1.260759434056e+04 
       5.612029235755e-02       1.248871612561e+04 
       5.707318240288e-02       1.236323552811e+04 
       5.812100413175e-02       1.222933294115e+04 
