# Matter power spectrum P(k) at redshift z=0
# for k=1.02712e-05 to 14.0815 h/Mpc,
# number of wavenumbers equal to 736
#    1:k (h/Mpc)              2:P (Mpc/h)^3        
       1.027122059947e-05       5.281173691832e+01 
       2.288020640384e-05       1.144362031724e+02 
       3.553179251169e-05       1.750321037051e+02 
       4.825859396144e-05       2.352213425006e+02 
       6.109374380102e-05       2.953589428739e+02 
       7.407117622743e-05       3.557113604120e+02 
       8.722591842926e-05       4.165065800577e+02 
       1.005943948635e-04       4.779545748599e+02 
       1.142147477272e-04       5.402578032562e+02 
       1.281271774162e-04       6.036175250936e+02 
       1.423743067758e-04       6.682381778233e+02 
       1.570015729103e-04       7.343307490516e+02 
       1.720576501914e-04       8.021156393842e+02 
       1.875949078318e-04       8.718252750758e+02 
       2.036699048942e-04       9.437065841747e+02 
       2.203439247937e-04       1.018023455448e+03 
       2.376835500814e-04       1.095059184151e+03 
       2.557612764169e-04       1.175118958679e+03 
       2.746561619231e-04       1.258532350760e+03 
       2.944545043243e-04       1.345655789621e+03 
       3.152505330930e-04       1.436874958361e+03 
       3.371470969501e-04       1.532607013674e+03 
       3.602563181520e-04       1.633302476427e+03 
       3.847001737975e-04       1.739446655822e+03 
       4.106109508041e-04       1.851560263842e+03 
       4.381315054701e-04       1.970199060835e+03 
       4.674152414144e-04       2.095951978047e+03 
       4.986257027812e-04       2.229437460609e+03 
       5.319356655883e-04       2.371297427565e+03 
       5.675256030878e-04       2.522188447759e+03 
       6.055814063997e-04       2.682769684685e+03 
       6.462912658995e-04       2.853687352016e+03 
       6.898416680991e-04       3.035555637905e+03 
       7.364125410986e-04       3.228934509571e+03 
       7.861716882043e-04       3.434305073048e+03 
       8.392687751924e-04       3.652044097648e+03 
       8.958292635317e-04       3.882399251759e+03 
       9.559487826227e-04       4.125467604325e+03 
       1.019688478392e-03       4.381179426396e+03 
       1.087071838756e-03       4.649289619978e+03 
       1.158083370014e-03       4.929377992421e+03 
       1.232669296779e-03       5.220858862302e+03 
       1.310740218513e-03       5.522999514604e+03 
       1.392175427614e-03       5.834905346437e+03 
       1.476828423815e-03       6.155662188560e+03 
       1.564533076435e-03       6.484264101142e+03 
       1.655109894552e-03       6.819671203451e+03 
       1.748371947792e-03       7.160840173927e+03 
       1.844130106886e-03       7.506747762717e+03 
       1.942197411375e-03       7.856409268464e+03 
       2.042392496592e-03       8.208893011615e+03 
       2.144542108732e-03       8.563329365982e+03 
       2.248482800727e-03       8.918916897885e+03 
       2.354061935611e-03       9.274924477352e+03 
       2.461138134428e-03       9.630690075226e+03 
       2.569581300136e-03       9.985620310429e+03 
       2.679272333998e-03       1.033918501153e+04 
       2.790102641916e-03       1.069091410681e+04 
       2.901973508494e-03       1.104039394746e+04 
       3.014795398489e-03       1.138725930229e+04 
       3.128487229649e-03       1.173119216932e+04 
       3.242975648117e-03       1.207191494372e+04 
       3.358194327520e-03       1.240918819447e+04 
       3.474083305139e-03       1.274280114140e+04 
       3.590588362913e-03       1.307257801263e+04 
       3.707660456911e-03       1.339836540668e+04 
       3.825255196121e-03       1.372003692129e+04 
       3.943332369454e-03       1.403748107559e+04 
       4.061855518717e-03       1.435060945373e+04 
       4.180791554548e-03       1.465934936486e+04 
       4.300110412002e-03       1.496363915150e+04 
       4.419784742316e-03       1.526343312284e+04 
       4.539789637481e-03       1.555869210429e+04 
       4.660102384327e-03       1.584939676016e+04 
       4.780702245105e-03       1.613551627087e+04 
       4.901570261725e-03       1.641705577997e+04 
       5.022689081100e-03       1.669401681555e+04 
       5.144042799256e-03       1.690620681118e+04 
       5.265616822135e-03       1.717166748779e+04 
       5.387397741212e-03       1.743253804919e+04 
       5.509373222271e-03       1.768883331466e+04 
       5.631531905849e-03       1.794057947301e+04 
       5.753863318057e-03       1.818779485378e+04 
       5.876357790592e-03       1.843050833629e+04 
       5.999006388937e-03       1.866875305106e+04 
       6.121800847823e-03       1.890255823226e+04 
       6.244733513164e-03       1.913195156097e+04 
       6.367797289747e-03       1.935697705591e+04 
       6.490985594058e-03       1.957766017924e+04 
       6.614292311683e-03       1.979405009798e+04 
       6.737711758802e-03       2.000618390925e+04 
       6.861238647333e-03       2.021409592404e+04 
       6.984868053352e-03       2.041783007962e+04 
       7.108595388444e-03       2.061742715760e+04 
       7.232416373678e-03       2.081292229338e+04 
       7.356327015947e-03       2.100436376348e+04 
       7.480323586429e-03       2.119179467039e+04 
       7.604402600960e-03       2.137526224103e+04 
       7.728560802123e-03       2.155479018877e+04 
       7.852795142898e-03       2.173043747615e+04 
       7.977102771706e-03       2.190224038751e+04 
       8.101481018726e-03       2.207022341125e+04 
       8.225927383364e-03       2.223446005558e+04 
       8.350439522750e-03       2.239498092945e+04 
       8.475015241192e-03       2.255181879341e+04 
       8.599652480481e-03       2.270502235765e+04 
       8.724349310975e-03       2.285462256052e+04 
       8.849103923397e-03       2.300067126210e+04 
       8.973914621273e-03       2.314320294137e+04 
       9.098779813970e-03       2.328226267455e+04 
       9.223698010261e-03       2.341789052417e+04 
       9.348667812391e-03       2.355012029763e+04 
       9.473687910591e-03       2.367899242058e+04 
       9.598757078002e-03       2.380455411037e+04 
       9.723874165985e-03       2.392682794999e+04 
       9.849038099769e-03       2.404586692192e+04 
       9.974247874425e-03       2.416170718161e+04 
       1.009950255113e-02       2.427437820315e+04 
       1.022480125371e-02       2.438393431961e+04 
       1.035014316542e-02       2.449040311586e+04 
       1.047552752594e-02       2.459381594591e+04 
       1.060095362863e-02       2.469422048153e+04 
       1.072642081795e-02       2.479165334989e+04 
       1.085192848705e-02       2.488613611479e+04 
       1.097747607554e-02       2.497772827688e+04 
       1.110306306742e-02       2.506645282916e+04 
       1.122868898918e-02       2.515234332948e+04 
       1.135435340797e-02       2.523544251534e+04 
       1.148005592992e-02       2.531577751949e+04 
       1.160579619863e-02       2.539339268591e+04 
       1.173157389371e-02       2.546831026760e+04 
       1.185738872939e-02       2.554056580084e+04 
       1.198324045334e-02       2.561018895515e+04 
       1.210912884544e-02       2.567723283213e+04 
       1.223505371675e-02       2.574170368651e+04 
       1.236101490846e-02       2.580363356372e+04 
       1.248701229098e-02       2.586308447572e+04 
       1.261304576309e-02       2.592005934217e+04 
       1.273911525109e-02       2.597459375496e+04 
       1.286522070809e-02       2.602673457161e+04 
       1.299136211330e-02       2.607650517334e+04 
       1.311753947143e-02       2.612391799596e+04 
       1.324375281206e-02       2.616902590809e+04 
       1.337000218914e-02       2.621183804034e+04 
       1.349628768044e-02       2.625240695097e+04 
       1.362260938715e-02       2.629073681148e+04 
       1.374896743347e-02       2.632686416357e+04 
       1.387536196616e-02       2.636082632291e+04 
       1.400179315429e-02       2.639263628019e+04 
       1.412826118888e-02       2.642233042372e+04 
       1.425476628262e-02       2.644993684367e+04 
       1.438130866968e-02       2.647547700289e+04 
       1.450788860542e-02       2.649898194324e+04 
       1.463450636627e-02       2.652048315343e+04 
       1.476116224954e-02       2.653999600602e+04 
       1.488785657328e-02       2.655755430472e+04 
       1.501458967621e-02       2.657318229658e+04 
       1.514136191758e-02       2.658690811360e+04 
       1.526817367716e-02       2.659875892687e+04 
       1.539502535517e-02       2.660874897204e+04 
       1.552191737228e-02       2.661690334978e+04 
       1.564885016960e-02       2.662325187008e+04 
       1.577582420872e-02       2.662784718853e+04 
       1.590283997175e-02       2.663066911129e+04 
       1.602989796136e-02       2.663175325639e+04 
       1.615699870092e-02       2.663113533000e+04 
       1.628414273452e-02       2.662884612072e+04 
       1.641133062718e-02       2.662489446069e+04 
       1.653856296490e-02       2.661929429042e+04 
       1.666584035488e-02       2.661209391765e+04 
       1.679316342567e-02       2.660331251172e+04 
       1.692053282735e-02       2.659293696258e+04 
       1.704794923173e-02       2.658103940550e+04 
       1.717541333261e-02       2.656761462199e+04 
       1.730292584598e-02       2.655268682435e+04 
       1.743048751031e-02       2.653631510907e+04 
       1.755809908678e-02       2.651844774985e+04 
       1.768576135960e-02       2.649917345995e+04 
       1.781347513633e-02       2.647848128308e+04 
       1.794124124815e-02       2.645640916128e+04 
       1.806906055026e-02       2.643298469706e+04 
       1.819693392217e-02       2.640821721512e+04 
       1.832486226815e-02       2.638208964351e+04 
       1.845284651753e-02       2.635468676357e+04 
       1.858088762518e-02       2.632599397259e+04 
       1.870898657191e-02       2.629605027558e+04 
       1.883714436488e-02       2.626488469524e+04 
       1.896536203811e-02       2.623247130594e+04 
       1.909364065291e-02       2.619887014362e+04 
       1.922198129840e-02       2.616409600999e+04 
       1.935038509202e-02       2.612815725350e+04 
       1.947885318004e-02       2.609108943723e+04 
       1.960738673815e-02       2.605290226514e+04 
       1.973598697199e-02       2.601357512735e+04 
       1.986465511777e-02       2.597323033249e+04 
       1.999339244285e-02       2.593177378731e+04 
       2.012220024640e-02       2.588930896148e+04 
       2.025107986002e-02       2.584579226091e+04 
       2.038003264845e-02       2.580125241797e+04 
       2.050906001023e-02       2.575574281590e+04 
       2.063816337845e-02       2.570927488828e+04 
       2.076734422145e-02       2.566183531688e+04 
       2.089660404364e-02       2.561349147120e+04 
       2.102594438623e-02       2.556423178804e+04 
       2.115536682809e-02       2.551400061878e+04 
       2.128487298656e-02       2.546295035352e+04 
       2.141446451836e-02       2.541099738727e+04 
       2.154414312042e-02       2.535818933175e+04 
       2.167391053085e-02       2.530458075811e+04 
       2.180376852990e-02       2.525014934085e+04 
       2.193371894088e-02       2.519492507412e+04 
       2.206376363125e-02       2.513888712031e+04 
       2.219390451360e-02       2.508207027046e+04 
       2.232414354677e-02       2.502451184868e+04 
       2.245448273693e-02       2.496624431128e+04 
       2.258492413875e-02       2.490724200575e+04 
       2.271546985657e-02       2.484755887961e+04 
       2.284612204560e-02       2.478710047592e+04 
       2.297688291322e-02       2.472608001594e+04 
       2.310775472023e-02       2.466433731713e+04 
       2.323873978223e-02       2.460193496588e+04 
       2.336984047097e-02       2.453892623630e+04 
       2.350105921578e-02       2.447530726320e+04 
       2.363239850506e-02       2.441104723557e+04 
       2.376386088777e-02       2.434622214197e+04 
       2.389544897500e-02       2.428085754620e+04 
       2.402716544164e-02       2.421490959958e+04 
       2.415901302795e-02       2.414843277999e+04 
       2.429099454139e-02       2.408142512787e+04 
       2.442311285831e-02       2.401388219269e+04 
       2.455537092586e-02       2.394583974308e+04 
       2.468777176386e-02       2.387729835579e+04 
       2.482031846676e-02       2.380828040343e+04 
       2.495301420566e-02       2.373881380950e+04 
       2.508586223046e-02       2.366889489422e+04 
       2.521886587197e-02       2.359849431718e+04 
       2.535202854418e-02       2.352775135939e+04 
       2.548535374657e-02       2.345656265085e+04 
       2.561884506654e-02       2.338494228097e+04 
       2.575250618185e-02       2.331295613370e+04 
       2.588634086321e-02       2.324063175978e+04 
       2.602035297693e-02       2.316788621039e+04 
       2.615454648771e-02       2.309477889301e+04 
       2.628892546144e-02       2.302134457333e+04 
       2.642349406817e-02       2.294756785055e+04 
       2.655825658521e-02       2.287347196179e+04 
       2.669321740021e-02       2.279912823541e+04 
       2.682838101457e-02       2.272433605897e+04 
       2.696375204671e-02       2.264939412710e+04 
       2.709933523573e-02       2.257406070349e+04 
       2.723513544497e-02       2.249859146540e+04 
       2.737115766589e-02       2.242278987516e+04 
       2.750740702196e-02       2.234677587802e+04 
       2.764388877281e-02       2.227044215620e+04 
       2.778060831840e-02       2.219397790514e+04 
       2.791757120355e-02       2.211715519483e+04 
       2.805478312243e-02       2.204035471550e+04 
       2.819224992337e-02       2.196315020561e+04 
       2.832997761384e-02       2.188585861647e+04 
       2.846797236555e-02       2.180829901301e+04 
       2.860624051987e-02       2.173059160928e+04 
       2.874478859339e-02       2.165275242659e+04 
       2.888362328368e-02       2.157470825427e+04 
       2.902275147544e-02       2.149653737570e+04 
       2.916218024669e-02       2.141826144999e+04 
       2.930191687541e-02       2.133979864517e+04 
       2.944196884632e-02       2.126124200086e+04 
       2.958234385808e-02       2.118255546360e+04 
       2.972304983063e-02       2.110377885589e+04 
       2.986409491305e-02       2.102491149840e+04 
       3.000548749157e-02       2.094591814981e+04 
       3.014723619807e-02       2.086681764756e+04 
       3.028934991890e-02       2.078764405994e+04 
       3.043183780411e-02       2.070843019246e+04 
       3.057470927706e-02       2.062918167250e+04 
       3.071797404455e-02       2.054982723954e+04 
       3.086164210733e-02       2.047035906639e+04 
       3.100572377114e-02       2.039085271351e+04 
       3.115022965828e-02       2.031139582802e+04 
       3.129517071970e-02       2.023182432260e+04 
       3.144055824771e-02       2.015224517337e+04 
       3.158640388921e-02       2.007263237419e+04 
       3.173271965971e-02       1.999297220567e+04 
       3.187951795790e-02       1.991337421293e+04 
       3.202681158102e-02       1.983366499088e+04 
       3.217461374103e-02       1.975401571898e+04 
       3.232293808148e-02       1.967434428399e+04 
       3.247179869537e-02       1.959467338325e+04 
       3.262121014391e-02       1.951498370137e+04 
       3.277118747617e-02       1.943539733914e+04 
       3.292174624989e-02       1.935568609327e+04 
       3.307290255332e-02       1.927613249736e+04 
       3.322467302829e-02       1.919658047703e+04 
       3.337707489450e-02       1.911700461406e+04 
       3.353012597516e-02       1.903741133425e+04 
       3.368384472407e-02       1.895797979716e+04 
       3.383825025422e-02       1.887842477479e+04 
       3.399336236805e-02       1.879903064032e+04 
       3.414920158936e-02       1.871964339747e+04 
       3.430578919722e-02       1.864031689809e+04 
       3.446314726175e-02       1.856104066924e+04 
       3.462129868212e-02       1.848177538446e+04 
       3.478026722683e-02       1.840257909278e+04 
       3.494007757638e-02       1.832336005133e+04 
       3.510075536870e-02       1.824436969372e+04 
       3.526232724732e-02       1.816520946762e+04 
       3.542482091262e-02       1.808629524614e+04 
       3.558826517643e-02       1.800740722344e+04 
       3.575269002006e-02       1.792851010000e+04 
       3.591812665624e-02       1.784971535496e+04 
       3.608460759515e-02       1.777097303830e+04 
       3.625216671493e-02       1.769229111173e+04 
       3.642083933696e-02       1.761359923279e+04 
       3.659066230643e-02       1.753505443293e+04 
       3.676167407848e-02       1.745651273017e+04 
       3.693391481059e-02       1.737809086735e+04 
       3.710742646151e-02       1.729959344598e+04 
       3.728225289753e-02       1.722130980140e+04 
       3.745844000658e-02       1.714299313778e+04 
       3.763603582096e-02       1.706477001409e+04 
       3.781509064945e-02       1.698661061560e+04 
       3.799565721960e-02       1.690847344238e+04 
       3.817779083132e-02       1.683035130194e+04 
       3.836154952266e-02       1.675230183172e+04 
       3.854699424906e-02       1.667428610200e+04 
       3.873418907742e-02       1.659629055233e+04 
       3.892320139634e-02       1.651835378667e+04 
       3.911410214432e-02       1.644050397909e+04 
       3.930696605759e-02       1.636257330983e+04 
       3.950187193988e-02       1.628471535507e+04 
       3.969890295609e-02       1.620678461801e+04 
       3.989814695286e-02       1.612898221354e+04 
       4.009969680863e-02       1.605116463092e+04 
       4.030365081674e-02       1.597331726156e+04 
       4.051011310519e-02       1.589546197598e+04 
       4.071919409731e-02       1.581761856341e+04 
       4.093101101832e-02       1.573967850104e+04 
       4.114568845298e-02       1.566178856319e+04 
       4.136335896094e-02       1.558381128393e+04 
       4.158416375670e-02       1.550580112373e+04 
       4.180825346252e-02       1.542773824609e+04 
       4.203578894371e-02       1.534961102238e+04 
       4.226694223721e-02       1.527140294330e+04 
       4.250189758595e-02       1.519307240646e+04 
       4.274085259366e-02       1.511461468796e+04 
       4.298401951705e-02       1.503607487109e+04 
       4.323162671498e-02       1.495746346564e+04 
       4.348392027776e-02       1.487861256079e+04 
       4.374116586360e-02       1.479958851971e+04 
       4.400365077387e-02       1.472041938463e+04 
       4.427168630476e-02       1.464099658510e+04 
       4.454561041967e-02       1.456138259987e+04 
       4.482579079503e-02       1.448147840256e+04 
       4.511262830241e-02       1.440132829611e+04 
       4.540656100225e-02       1.432089672559e+04 
       4.570806873949e-02       1.424013149806e+04 
       4.601767845028e-02       1.415892334523e+04 
       4.633597031186e-02       1.407740280264e+04 
       4.666358489637e-02       1.399539261407e+04 
       4.700123152482e-02       1.391291659156e+04 
       4.734969806228e-02       1.382992803980e+04 
       4.770986245098e-02       1.374632606719e+04 
       4.808270634878e-02       1.366212961841e+04 
       4.846933132951e-02       1.357721968021e+04 
       4.887097821528e-02       1.349152872942e+04 
       4.928905025447e-02       1.340497317451e+04 
       4.972514104335e-02       1.331749422707e+04 
       5.018106832308e-02       1.322896228821e+04 
       5.065891508188e-02       1.313921324352e+04 
       5.116107976923e-02       1.304813283145e+04 
       5.169033790176e-02       1.295556814085e+04 
       5.224991792221e-02       1.286129011227e+04 
       5.284359486715e-02       1.276500343749e+04 
       5.347580617859e-02       1.266646071523e+04 
       5.415179476923e-02       1.256521868288e+04 
       5.487778498872e-02       1.246076835745e+04 
       5.566119692877e-02       1.235252377112e+04 
       5.651090249186e-02       1.223955281512e+04 
       5.743752076325e-02       1.212080085920e+04 
       5.845373663676e-02       1.199478547594e+04 
       5.957459876600e-02       1.185943930720e+04 
