# Matter power spectrum P(k) at redshift z=0
# for k=1.02832e-05 to 14.1259 h/Mpc,
# number of wavenumbers equal to 737
#    1:k (h/Mpc)              2:P (Mpc/h)^3        
       1.028315187409e-05       5.268463348848e+01 
       2.289233871901e-05       1.140911610229e+02 
       3.554415801369e-05       1.744733649048e+02 
       4.827122652418e-05       2.344503513729e+02 
       6.110667932423e-05       2.943756259571e+02 
       7.408445296123e-05       3.545145103041e+02 
       8.723957732936e-05       4.150939903301e+02 
       1.006084799818e-04       4.763231082660e+02 
       1.142293066428e-04       5.384034012482e+02 
       1.281422617127e-04       6.015351898984e+02 
       1.423899725698e-04       6.659219241875e+02 
       1.570178814388e-04       7.317735490982e+02 
       1.720746684625e-04       7.993093412828e+02 
       1.876127093465e-04       8.687605005131e+02 
       2.036885704442e-04       9.403726114099e+02 
       2.203635433402e-04       1.014408078832e+03 
       2.377042197185e-04       1.091148543653e+03 
       2.557831054195e-04       1.170897347513e+03 
       2.746792698760e-04       1.253981989928e+03 
       2.944790233234e-04       1.340756571186e+03 
       3.152766090012e-04       1.431604149996e+03 
       3.371748906785e-04       1.526938920578e+03 
       3.602860069232e-04       1.627208074281e+03 
       3.847319523295e-04       1.732893142512e+03 
       4.106450323288e-04       1.844510639386e+03 
       4.381681224739e-04       1.962611585862e+03 
       4.674546459601e-04       2.087779694556e+03 
       4.986681662371e-04       2.220627651235e+03 
       5.319814775693e-04       2.361791120619e+03 
       5.675750693952e-04       2.511919999838e+03 
       6.056348457558e-04       2.671666482220e+03 
       6.463490053111e-04       2.841669703121e+03 
       6.899040367632e-04       3.022536962091e+03 
       7.364798628936e-04       3.214821834812e+03 
       7.862442729821e-04       3.419000027313e+03 
       8.393469092916e-04       3.635444297932e+03 
       8.959132001334e-04       3.864400153088e+03 
       9.560387327225e-04       4.105964722788e+03 
       1.019784603225e-03       4.360070753286e+03 
       1.087174244436e-03       4.626477980969e+03 
       1.158192104955e-03       4.904773179109e+03 
       1.232784352125e-03       5.194379274390e+03 
       1.310861531475e-03       5.494573051574e+03 
       1.392302887262e-03       5.804469987254e+03 
       1.476961878632e-03       6.123165530767e+03 
       1.564672342852e-03       6.449662612658e+03 
       1.655254765691e-03       6.782929374710e+03 
       1.748522201787e-03       7.121929506298e+03 
       1.844285514310e-03       7.465645627432e+03 
       1.942357741511e-03       7.813097850145e+03 
       2.042557522452e-03       8.163358315175e+03 
       2.144711610848e-03       8.515560322450e+03 
       2.248656569838e-03       8.868904601635e+03 
       2.354239774399e-03       9.222661548474e+03 
       2.461319858491e-03       9.576170201666e+03 
       2.569766738359e-03       9.928838135605e+03 
       2.679461328485e-03       1.028013556720e+04 
       2.790295047596e-03       1.062959311631e+04 
       2.902169192526e-03       1.097679768309e+04 
       3.014994239532e-03       1.132138460921e+04 
       3.128689117062e-03       1.166303661725e+04 
       3.243180481138e-03       1.200147704759e+04 
       3.358402014447e-03       1.233646760011e+04 
       3.474293762548e-03       1.266779827538e+04 
       3.590801514905e-03       1.299529437741e+04 
       3.707876234421e-03       1.331880356868e+04 
       3.825473536268e-03       1.363820065675e+04 
       3.943553214956e-03       1.395337538165e+04 
       4.062078817347e-03       1.426424056535e+04 
       4.181017258647e-03       1.457072471358e+04 
       4.300338478038e-03       1.487276744780e+04 
       4.420015130485e-03       1.517032429382e+04 
       4.540022311346e-03       1.546336028264e+04 
       4.660337310500e-03       1.575184858461e+04 
       4.780939392951e-03       1.603576902577e+04 
       4.901809603109e-03       1.631512229835e+04 
       5.022930590148e-03       1.658991393540e+04 
       5.144286452150e-03       1.686013543687e+04 
       5.265862596921e-03       1.712580142504e+04 
       5.387645617633e-03       1.738692101398e+04 
       5.509623181614e-03       1.764350985684e+04 
       5.631783930811e-03       1.789559050825e+04 
       5.754117392619e-03       1.814318104108e+04 
       5.876613899909e-03       1.838631181143e+04 
       5.999264519239e-03       1.862501400715e+04 
       6.122060986324e-03       1.885931454031e+04 
       6.244995647980e-03       1.908924252909e+04 
       6.368061409825e-03       1.931483572747e+04 
       6.491251689105e-03       1.953612841768e+04 
       6.614560372108e-03       1.975315691881e+04 
       6.737981775661e-03       1.996596229269e+04 
       6.861510612278e-03       2.017457640967e+04 
       6.985141958587e-03       2.037904212658e+04 
       7.108871226683e-03       2.057940102855e+04 
       7.232694138107e-03       2.077568261972e+04 
       7.356606700190e-03       2.096793375840e+04 
       7.480605184517e-03       2.115619661284e+04 
       7.604686107300e-03       2.134051611540e+04 
       7.728846211475e-03       2.152092491529e+04 
       7.853082450350e-03       2.169746983361e+04 
       7.977391972649e-03       2.187018799253e+04 
       8.101772108839e-03       2.203911974388e+04 
       8.226220358590e-03       2.220431385234e+04 
       8.350734379282e-03       2.236580376492e+04 
       8.475311975458e-03       2.252363236645e+04 
       8.599951089126e-03       2.267784478898e+04 
       8.724649790850e-03       2.282846895797e+04 
       8.849406271547e-03       2.297556111048e+04 
       8.974218834926e-03       2.311915168958e+04 
       9.099085890523e-03       2.325928204762e+04 
       9.224005947273e-03       2.339599139841e+04 
       9.348977607575e-03       2.352931990049e+04 
       9.473999561803e-03       2.365929939482e+04 
       9.599070583235e-03       2.378598207890e+04 
       9.724189523361e-03       2.390938510747e+04 
       9.849355307533e-03       2.402955775966e+04 
       9.974566930938e-03       2.414653963737e+04 
       1.009982345487e-02       2.426035176570e+04 
       1.022512400325e-02       2.437105389588e+04 
       1.035046775942e-02       2.447867547479e+04 
       1.047585396319e-02       2.458322624718e+04 
       1.060128190800e-02       2.468479163608e+04 
       1.072675093838e-02       2.478334926797e+04 
       1.085226044758e-02       2.487899125253e+04 
       1.097780987529e-02       2.497171620404e+04 
       1.110339870559e-02       2.506156266378e+04 
       1.122902646503e-02       2.514857944418e+04 
       1.135469272083e-02       2.523280142394e+04 
       1.148039707920e-02       2.531423485665e+04 
       1.160613918382e-02       2.539293616940e+04 
       1.173191871433e-02       2.546893538537e+04 
       1.185773538505e-02       2.554226976411e+04 
       1.198358894369e-02       2.561296922840e+04 
       1.210947917021e-02       2.568105918937e+04 
       1.223540587571e-02       2.574656860357e+04 
       1.236136890144e-02       2.580953909068e+04 
       1.248736811787e-02       2.587001137631e+04 
       1.261340342381e-02       2.592799697066e+04 
       1.273947474563e-02       2.598354156780e+04 
       1.286558203649e-02       2.603666812371e+04 
       1.299172527565e-02       2.608741031250e+04 
       1.311790446786e-02       2.613580411623e+04 
       1.324411964275e-02       2.618187289403e+04 
       1.337037085430e-02       2.622563824851e+04 
       1.349665818036e-02       2.626714705224e+04 
       1.362298172215e-02       2.630641196788e+04 
       1.374934160389e-02       2.634345365070e+04 
       1.387573797243e-02       2.637832351425e+04 
       1.400217099684e-02       2.641103266971e+04 
       1.412864086820e-02       2.644161203001e+04 
       1.425514779925e-02       2.647009587515e+04 
       1.438169202419e-02       2.649650149278e+04 
       1.450827379843e-02       2.652085632081e+04 
       1.463489339843e-02       2.654319875217e+04 
       1.476155112156e-02       2.656354070119e+04 
       1.488824728590e-02       2.658191621355e+04 
       1.501498223021e-02       2.659834850489e+04 
       1.514175631378e-02       2.661286441306e+04 
       1.526856991643e-02       2.662549548115e+04 
       1.539542343842e-02       2.663624836087e+04 
       1.552231730045e-02       2.664515576144e+04 
       1.564925194368e-02       2.665224091386e+04 
       1.577622782975e-02       2.665756225248e+04 
       1.590324544079e-02       2.666109163557e+04 
       1.603030527953e-02       2.666287442247e+04 
       1.615740786937e-02       2.666294071062e+04 
       1.628455375447e-02       2.666132822692e+04 
       1.641174349985e-02       2.665793341062e+04 
       1.653897769159e-02       2.665306366621e+04 
       1.666625693692e-02       2.664647080215e+04 
       1.679358186443e-02       2.663827639932e+04 
       1.692095312424e-02       2.662851419641e+04 
       1.704837138823e-02       2.661717775006e+04 
       1.717583735022e-02       2.660432513994e+04 
       1.730335172627e-02       2.658995276250e+04 
       1.743091525487e-02       2.657409470269e+04 
       1.755852869726e-02       2.655659725030e+04 
       1.768619283771e-02       2.653794094198e+04 
       1.781390848380e-02       2.651758230772e+04 
       1.794167646679e-02       2.649609277493e+04 
       1.806949764191e-02       2.647300883642e+04 
       1.819737288874e-02       2.644873307072e+04 
       1.832530311157e-02       2.642298302171e+04 
       1.845328923982e-02       2.639598379728e+04 
       1.858133222839e-02       2.636762057740e+04 
       1.870943305815e-02       2.633786133735e+04 
       1.883759273632e-02       2.630700041858e+04 
       1.896581229697e-02       2.627505236447e+04 
       1.909409280147e-02       2.624166270027e+04 
       1.922243533900e-02       2.620698888652e+04 
       1.935084102705e-02       2.617144518770e+04 
       1.947931101197e-02       2.613442068013e+04 
       1.960784646950e-02       2.609653955744e+04 
       1.973644860534e-02       2.605730849708e+04 
       1.986511865577e-02       2.601713550580e+04 
       1.999385788821e-02       2.597583962053e+04 
       2.012266760190e-02       2.593351574059e+04 
       2.025154912851e-02       2.588997167675e+04 
       2.038050383285e-02       2.584551923892e+04 
       2.050953311354e-02       2.580015583070e+04 
       2.063863840371e-02       2.575382826228e+04 
       2.076782117182e-02       2.570631733538e+04 
       2.089708292231e-02       2.565799611973e+04 
       2.102642519650e-02       2.560872699916e+04 
       2.115584957333e-02       2.555854019905e+04 
       2.128535767022e-02       2.550739340961e+04 
       2.141495114397e-02       2.545545962929e+04 
       2.154463169159e-02       2.540260493327e+04 
       2.167440105130e-02       2.534885968339e+04 
       2.180426100340e-02       2.529452584367e+04 
       2.193421337132e-02       2.523908661320e+04 
       2.206426002261e-02       2.518293968031e+04 
       2.219440286994e-02       2.512593936153e+04 
       2.232464387226e-02       2.506831489277e+04 
       2.245498503583e-02       2.500979801960e+04 
       2.258542841543e-02       2.495072820342e+04 
       2.271597611549e-02       2.489077462100e+04 
       2.284663029135e-02       2.483021236181e+04 
       2.297739315047e-02       2.476897255999e+04 
       2.310826695379e-02       2.470706859807e+04 
       2.323925401700e-02       2.464434976775e+04 
       2.337035671197e-02       2.458107915728e+04 
       2.350157746816e-02       2.451725830421e+04 
       2.363291877409e-02       2.445271566843e+04 
       2.376438317884e-02       2.438758169062e+04 
       2.389597329365e-02       2.432194354844e+04 
       2.402769179350e-02       2.425570407067e+04 
       2.415954141883e-02       2.418892217254e+04 
       2.429152497721e-02       2.412148943247e+04 
       2.442364534516e-02       2.405361644100e+04 
       2.455590546995e-02       2.398522998901e+04 
       2.468830837155e-02       2.391634744692e+04 
       2.482085714458e-02       2.384691922093e+04 
       2.495355496029e-02       2.377710721954e+04 
       2.508640506875e-02       2.370676116063e+04 
       2.521941080092e-02       2.363592234083e+04 
       2.535257557098e-02       2.356476992742e+04 
       2.548590287857e-02       2.349298835746e+04 
       2.561939631128e-02       2.342094961274e+04 
       2.575305954705e-02       2.334846473252e+04 
       2.588689635679e-02       2.327560296751e+04 
       2.602091060700e-02       2.320236426695e+04 
       2.615510626257e-02       2.312878459174e+04 
       2.628948738960e-02       2.305482058612e+04 
       2.642405815838e-02       2.298052790531e+04 
       2.655882284639e-02       2.290588783142e+04 
       2.669378584156e-02       2.283092863188e+04 
       2.682895164547e-02       2.275558947154e+04 
       2.696432487681e-02       2.268011264403e+04 
       2.709991027491e-02       2.260417444508e+04 
       2.723571270338e-02       2.252806582382e+04 
       2.737173715391e-02       2.245167216298e+04 
       2.750798875027e-02       2.237500385553e+04 
       2.764447275233e-02       2.229801502284e+04 
       2.778119456037e-02       2.222089160503e+04 
       2.791815971947e-02       2.214357239025e+04 
       2.805537392412e-02       2.206602841728e+04 
       2.819284302295e-02       2.198819247283e+04 
       2.833057302374e-02       2.191014937467e+04 
       2.846857009856e-02       2.183189996215e+04 
       2.860684058910e-02       2.175358026815e+04 
       2.874539101228e-02       2.167492185859e+04 
       2.888422806607e-02       2.159624754519e+04 
       2.902335863552e-02       2.151735059039e+04 
       2.916278979905e-02       2.143835968941e+04 
       2.930252883501e-02       2.135915140258e+04 
       2.944258322857e-02       2.127980793165e+04 
       2.958296067877e-02       2.120041619530e+04 
       2.972366910603e-02       2.112085708530e+04 
       2.986471665984e-02       2.104120815537e+04 
       3.000611172694e-02       2.096145880396e+04 
       3.014786293967e-02       2.088152601326e+04 
       3.028997918488e-02       2.080156106914e+04 
       3.043246961315e-02       2.072155316827e+04 
       3.057534364838e-02       2.064140939301e+04 
       3.071861099790e-02       2.056117217064e+04 
       3.086228166305e-02       2.048102250298e+04 
       3.100636595017e-02       2.040062072320e+04 
       3.115087448217e-02       2.032024689425e+04 
       3.129581821066e-02       2.023981067227e+04 
       3.144120842858e-02       2.015935013269e+04 
       3.158705678354e-02       2.007888115034e+04 
       3.173337529175e-02       1.999834119585e+04 
       3.188017635266e-02       1.991782809802e+04 
       3.202747276427e-02       1.983719882487e+04 
       3.217527773933e-02       1.975662950774e+04 
       3.232360492223e-02       1.967604662861e+04 
       3.247246840684e-02       1.959546996767e+04 
       3.262188275525e-02       1.951484196781e+04 
       3.277186301748e-02       1.943422797656e+04 
       3.292242475223e-02       1.935370244530e+04 
       3.307358404877e-02       1.927302696728e+04 
       3.322535754999e-02       1.919243809433e+04 
       3.337776247668e-02       1.911187594104e+04 
       3.353081665318e-02       1.903133830206e+04 
       3.368453853451e-02       1.895087555600e+04 
       3.383894723491e-02       1.887033621072e+04 
       3.399406255809e-02       1.878989256805e+04 
       3.414990502923e-02       1.870938719719e+04 
       3.430649592882e-02       1.862908311138e+04 
       3.446385732846e-02       1.854873778795e+04 
       3.462201212888e-02       1.846833287147e+04 
       3.478098410018e-02       1.838808499218e+04 
       3.494079792460e-02       1.830775801338e+04 
       3.510147924182e-02       1.822764437362e+04 
       3.526305469726e-02       1.814741829081e+04 
       3.542555199326e-02       1.806735616600e+04 
       3.558899994370e-02       1.798729131784e+04 
       3.575342853206e-02       1.790725963712e+04 
       3.591886897333e-02       1.782720816283e+04 
       3.608535378009e-02       1.774739007980e+04 
       3.625291683298e-02       1.766743634241e+04 
       3.642159345605e-02       1.758754380947e+04 
       3.659142049725e-02       1.750778651443e+04 
       3.676243641469e-02       1.742797450200e+04 
       3.693468136894e-02       1.734820341530e+04 
       3.710819732203e-02       1.726860239091e+04 
       3.728302814370e-02       1.718893045933e+04 
       3.745921972557e-02       1.710933163414e+04 
       3.763682010382e-02       1.702975302797e+04 
       3.781587959131e-02       1.695023398338e+04 
       3.799645091998e-02       1.687075708293e+04 
       3.817858939434e-02       1.679128364411e+04 
       3.836235305737e-02       1.671183245310e+04 
       3.854780286974e-02       1.663238532773e+04 
       3.873500290391e-02       1.655297704961e+04 
       3.892402055440e-02       1.647357213820e+04 
       3.911492676604e-02       1.639427371516e+04 
       3.930779628181e-02       1.631483095556e+04 
       3.950270791265e-02       1.623544503172e+04 
       3.969974483119e-02       1.615597140912e+04 
       3.989899489234e-02       1.607659105810e+04 
       4.010055098343e-02       1.599717074798e+04 
       4.030451140731e-02       1.591768819574e+04 
       4.051098030225e-02       1.583820219750e+04 
       4.072006810262e-02       1.575865578817e+04 
       4.093189204554e-02       1.567900972180e+04 
       4.114657672865e-02       1.559934899395e+04 
       4.136425472551e-02       1.551963035205e+04 
       4.158506726568e-02       1.543975512260e+04 
       4.180916498779e-02       1.535983746383e+04 
       4.203670877492e-02       1.527981385468e+04 
       4.226787068335e-02       1.519968421677e+04 
       4.250283497715e-02       1.511935614197e+04 
       4.274179928310e-02       1.503882379108e+04 
       4.298497588318e-02       1.495828141850e+04 
       4.323259316397e-02       1.487749045289e+04 
       4.348489724625e-02       1.479643287622e+04 
       4.374215382181e-02       1.471522255539e+04 
       4.400465022911e-02       1.463371946642e+04 
       4.427269780540e-02       1.455194541453e+04 
       4.454663455966e-02       1.446986557048e+04 
       4.482682821902e-02       1.438746589392e+04 
       4.511367971165e-02       1.430474093241e+04 
       4.540762716131e-02       1.422160735865e+04 
       4.570915048400e-02       1.413806188834e+04 
       4.601877669589e-02       1.405400045223e+04 
       4.633708606459e-02       1.396952436638e+04 
       4.666471926468e-02       1.388442313584e+04 
       4.700238573368e-02       1.379875013245e+04 
       4.735087346968e-02       1.371241998986e+04 
       4.771106056738e-02       1.362533810470e+04 
       4.808392886008e-02       1.353747032807e+04 
       4.847058012444e-02       1.344874633549e+04 
       4.887225541797e-02       1.335904682385e+04 
       4.929035826363e-02       1.326831947059e+04 
       4.972648257944e-02       1.317639464063e+04 
       5.018244648546e-02       1.308315824689e+04 
       5.066033341837e-02       1.298846050146e+04 
       5.116254236112e-02       1.289209822513e+04 
       5.169184946812e-02       1.279388806364e+04 
       5.225148394849e-02       1.269358965620e+04 
       5.284522176377e-02       1.259078879598e+04 
       5.347750147694e-02       1.248524762221e+04 
       5.415356736327e-02       1.237641350422e+04 
       5.487964543100e-02       1.226371930683e+04 
       5.566315778843e-02       1.214648782720e+04 
       5.651297877718e-02       1.202360320610e+04 
       5.743973039845e-02       1.189396009046e+04 
       5.845610095412e-02       1.175586772749e+04 
       5.957714291872e-02       1.160710706265e+04 
