# Matter power spectrum P(k) at redshift z=0
# for k=1.03025e-05 to 14.1539 h/Mpc,
# number of wavenumbers equal to 737
#    1:k (h/Mpc)              2:P (Mpc/h)^3        
       1.030245911328e-05       5.234104622338e+01 
       2.293407862595e-05       1.133413111797e+02 
       3.560856081792e-05       1.733251106361e+02 
       4.835869751707e-05       2.329080951195e+02 
       6.121780350298e-05       2.924421183563e+02 
       7.422000221875e-05       3.521914750657e+02 
       8.740052029867e-05       4.123824283546e+02 
       1.007959946896e-04       4.732234749096e+02 
       1.144447961740e-04       5.349157288658e+02 
       1.283873731334e-04       5.976591957716e+02 
       1.426666194050e-04       6.616571053176e+02 
       1.573282700418e-04       7.271192678579e+02 
       1.724213286593e-04       7.942649272833e+02 
       1.879985297670e-04       8.633253540036e+02 
       2.041168389786e-04       9.345463274493e+02 
       2.208379931579e-04       1.008190577264e+03 
       2.382290812611e-04       1.084540231977e+03 
       2.563631647092e-04       1.163899305001e+03 
       2.753199333462e-04       1.246596178398e+03 
       2.951863891589e-04       1.332986072955e+03 
       3.160575446376e-04       1.423453449392e+03 
       3.380371156221e-04       1.518414210329e+03 
       3.612381793644e-04       1.618317589435e+03 
       3.857837571017e-04       1.723647553275e+03 
       4.118072665745e-04       1.834923411134e+03 
       4.394527738954e-04       1.952699401547e+03 
       4.688749567945e-04       2.077562802842e+03 
       5.002386741783e-04       2.210130181687e+03 
       5.337180229670e-04       2.351041306862e+03 
       5.694947565050e-04       2.500950219939e+03 
       6.077559450709e-04       2.660513077917e+03 
       6.486907846758e-04       2.830372493089e+03 
       6.924865117081e-04       3.011138384665e+03 
       7.393234619841e-04       3.203365663634e+03 
       7.893694221196e-04       3.407529637629e+03 
       8.427735493950e-04       3.624000534530e+03 
       8.996602641394e-04       3.853018969221e+03 
       9.601236182449e-04       4.094674671569e+03 
       1.024222683893e-03       4.348890713101e+03 
       1.091978463588e-03       4.615415382420e+03 
       1.163372688793e-03       4.893822961859e+03 
       1.238348666343e-03       5.183523759761e+03 
       1.316814088122e-03       5.483782924229e+03 
       1.398645490912e-03       5.793704178649e+03 
       1.483693886343e-03       6.112378393104e+03 
       1.571791003440e-03       6.438802051278e+03 
       1.662755601293e-03       6.771940849175e+03 
       1.756399397713e-03       7.110758235984e+03 
       1.852532289972e-03       7.454238626525e+03 
       1.950966683574e-03       7.801405485181e+03 
       2.051520869623e-03       8.151335356258e+03 
       2.154021486605e-03       8.503167026520e+03 
       2.258305164520e-03       8.856106889222e+03 
       2.364219481318e-03       9.209431261900e+03 
       2.471623370449e-03       9.562485433538e+03 
       2.580387111476e-03       9.914681782207e+03 
       2.690392020010e-03       1.026549679067e+04 
       2.801529933716e-03       1.061446608393e+04 
       2.913702571288e-03       1.096118073664e+04 
       3.026820823097e-03       1.130528050597e+04 
       3.140804016635e-03       1.164645205563e+04 
       3.255579187170e-03       1.198442186670e+04 
       3.371080374063e-03       1.231895437628e+04 
       3.487247955642e-03       1.264984245936e+04 
       3.604028029937e-03       1.297691363522e+04 
       3.721371844625e-03       1.330001713062e+04 
       3.839235276760e-03       1.361902948839e+04 
       3.957578361030e-03       1.393384198329e+04 
       4.076364864139e-03       1.424436848171e+04 
       4.195561902238e-03       1.455053815465e+04 
       4.315139598011e-03       1.485229174688e+04 
       4.435070773911e-03       1.514958456307e+04 
       4.555330678122e-03       1.544238301575e+04 
       4.675896739982e-03       1.573066022440e+04 
       4.796748351789e-03       1.601439475919e+04 
       4.917866674183e-03       1.629359118489e+04 
       5.039234462531e-03       1.656825097339e+04 
       5.160835912000e-03       1.677804391032e+04 
       5.282656519225e-03       1.704128882079e+04 
       5.404682958723e-03       1.729998911936e+04 
       5.526902972375e-03       1.755415808992e+04 
       5.649305270530e-03       1.780382622826e+04 
       5.771879443400e-03       1.804900866606e+04 
       5.894615881606e-03       1.828973763030e+04 
       6.017505704851e-03       1.852604407611e+04 
       6.140540697815e-03       1.875795796839e+04 
       6.263713252473e-03       1.898550682500e+04 
       6.387016316139e-03       1.920873247100e+04 
       6.510443344604e-03       1.942766427060e+04 
       6.633988259824e-03       1.964235347078e+04 
       6.757645411669e-03       1.985281648652e+04 
       6.881409543300e-03       2.005910817273e+04 
       7.005275759804e-03       2.026126439316e+04 
       7.129239499728e-03       2.045932612260e+04 
       7.253296509228e-03       2.065332700826e+04 
       7.377442818572e-03       2.084331370795e+04 
       7.501674720736e-03       2.102933413711e+04 
       7.625988751904e-03       2.121142631827e+04 
       7.750381673684e-03       2.138962054488e+04 
       7.874850456854e-03       2.156397117586e+04 
       7.999392266509e-03       2.173451626704e+04 
       8.124004448466e-03       2.190128215050e+04 
       8.248684516809e-03       2.206434259204e+04 
       8.373430142469e-03       2.222371657405e+04 
       8.498239142735e-03       2.237945664308e+04 
       8.623109471628e-03       2.253159019938e+04 
       8.748039211039e-03       2.268016737337e+04 
       8.873026562578e-03       2.282522922215e+04 
       8.998069840063e-03       2.296681351951e+04 
       9.123167462594e-03       2.310496138219e+04 
       9.248317948169e-03       2.323971459236e+04 
       9.373519907779e-03       2.337110977751e+04 
       9.498772039957e-03       2.349918069595e+04 
       9.624073125739e-03       2.362397532470e+04 
       9.749422023994e-03       2.374552474695e+04 
       9.874817667107e-03       2.386386654676e+04 
       1.000025905697e-02       2.397904297079e+04 
       1.012574526129e-02       2.409108400523e+04 
       1.025127541011e-02       2.420003926087e+04 
       1.037684869265e-02       2.430593101066e+04 
       1.050246435431e-02       2.440880356946e+04 
       1.062812169394e-02       2.450868611715e+04 
       1.075382006127e-02       2.460563284340e+04 
       1.087955885450e-02       2.469965704120e+04 
       1.100533751814e-02       2.479080116729e+04 
       1.113115554090e-02       2.487910862470e+04 
       1.125701245380e-02       2.496460463757e+04 
       1.138290782839e-02       2.504733191685e+04 
       1.150884127507e-02       2.512730912718e+04 
       1.163481244154e-02       2.520459641836e+04 
       1.176082101142e-02       2.527920315557e+04 
       1.188686670284e-02       2.535116710498e+04 
       1.201294926724e-02       2.542053661241e+04 
       1.213906848819e-02       2.548732408356e+04 
       1.226522418035e-02       2.555157823875e+04 
       1.239141618843e-02       2.561331993707e+04 
       1.251764438627e-02       2.567257284562e+04 
       1.264390867600e-02       2.572939870828e+04 
       1.277020898724e-02       2.578380770627e+04 
       1.289654527633e-02       2.583583173314e+04 
       1.302291752568e-02       2.588549682060e+04 
       1.314932574313e-02       2.593285148831e+04 
       1.327576996134e-02       2.597792119324e+04 
       1.340225023731e-02       2.602071922471e+04 
       1.352876665183e-02       2.606128258175e+04 
       1.365531930909e-02       2.609964371448e+04 
       1.378190833620e-02       2.613581610192e+04 
       1.390853388288e-02       2.616985457803e+04 
       1.403519612110e-02       2.620176582751e+04 
       1.416189524474e-02       2.623157112952e+04 
       1.428863146940e-02       2.625932291934e+04 
       1.441540503207e-02       2.628502632572e+04 
       1.454221619099e-02       2.630872390313e+04 
       1.466906522542e-02       2.633042964565e+04 
       1.479595243551e-02       2.635017922207e+04 
       1.492287814216e-02       2.636798714304e+04 
       1.504984268692e-02       2.638388871695e+04 
       1.517684643190e-02       2.639790276685e+04 
       1.530388975971e-02       2.641006761937e+04 
       1.543097307345e-02       2.642038203240e+04 
       1.555809679664e-02       2.642891532441e+04 
       1.568526137330e-02       2.643564499121e+04 
       1.581246726792e-02       2.644061731904e+04 
       1.593971496553e-02       2.644385689845e+04 
       1.606700497176e-02       2.644538461580e+04 
       1.619433781293e-02       2.644522685437e+04 
       1.632171403614e-02       2.644339771695e+04 
       1.644913420942e-02       2.643993755748e+04 
       1.657659892183e-02       2.643484586859e+04 
       1.670410878366e-02       2.642818447361e+04 
       1.683166442656e-02       2.641993300596e+04 
       1.695926650377e-02       2.641013615195e+04 
       1.708691569029e-02       2.639880277425e+04 
       1.721461268316e-02       2.638595606735e+04 
       1.734235820164e-02       2.637165626401e+04 
       1.747015298750e-02       2.635588840248e+04 
       1.759799780531e-02       2.633866541007e+04 
       1.772589344267e-02       2.632005163279e+04 
       1.785384071062e-02       2.630000879198e+04 
       1.798184044384e-02       2.627861723219e+04 
       1.810989350110e-02       2.625585762640e+04 
       1.823800076556e-02       2.623177335823e+04 
       1.836616314513e-02       2.620637882253e+04 
       1.849438157294e-02       2.617967179889e+04 
       1.862265700764e-02       2.615174159710e+04 
       1.875099043391e-02       2.612252305447e+04 
       1.887938286288e-02       2.609207208271e+04 
       1.900783533255e-02       2.606041995936e+04 
       1.913634890834e-02       2.602756798582e+04 
       1.926492468353e-02       2.599355256999e+04 
       1.939356377980e-02       2.595840424310e+04 
       1.952226734773e-02       2.592211354270e+04 
       1.965103656742e-02       2.588467841304e+04 
       1.977987264900e-02       2.584620734001e+04 
       1.990877683324e-02       2.580662213298e+04 
       2.003775039218e-02       2.576599661100e+04 
       2.016679462973e-02       2.572434528416e+04 
       2.029591088237e-02       2.568165719978e+04 
       2.042510051977e-02       2.563799152148e+04 
       2.055436494554e-02       2.559332700193e+04 
       2.068370559792e-02       2.554769341688e+04 
       2.081312395053e-02       2.550110929490e+04 
       2.094262151314e-02       2.545361385705e+04 
       2.107219983247e-02       2.540519670316e+04 
       2.120186049299e-02       2.535591270800e+04 
       2.133160511779e-02       2.530571873898e+04 
       2.146143536942e-02       2.525471767921e+04 
       2.159135295082e-02       2.520280027118e+04 
       2.172135960621e-02       2.515008855964e+04 
       2.185145712207e-02       2.509657606032e+04 
       2.198164732814e-02       2.504227569563e+04 
       2.211193209838e-02       2.498717536085e+04 
       2.224231335210e-02       2.493136115018e+04 
       2.237279305495e-02       2.487478810336e+04 
       2.250337322011e-02       2.481745412205e+04 
       2.263405590939e-02       2.475935917126e+04 
       2.276484323445e-02       2.470071499404e+04 
       2.289573735801e-02       2.464126401190e+04 
       2.302674049510e-02       2.458116684621e+04 
       2.315785491438e-02       2.452044534489e+04 
       2.328908293946e-02       2.445901265553e+04 
       2.342042695034e-02       2.439705471608e+04 
       2.355188938477e-02       2.433444136273e+04 
       2.368347273976e-02       2.427119460027e+04 
       2.381517957311e-02       2.420740625618e+04 
       2.394701250499e-02       2.414307592826e+04 
       2.407897421952e-02       2.407806653700e+04 
       2.421106746649e-02       2.401265046584e+04 
       2.434329506307e-02       2.394670107758e+04 
       2.447565989562e-02       2.388016238855e+04 
       2.460816492151e-02       2.381316326488e+04 
       2.474081317103e-02       2.374568278821e+04 
       2.487360774939e-02       2.367767403319e+04 
       2.500655183873e-02       2.360924084123e+04 
       2.513964870025e-02       2.354036778271e+04 
       2.527290167635e-02       2.347103309961e+04 
       2.540631419293e-02       2.340124335660e+04 
       2.553988976169e-02       2.333110719926e+04 
       2.567363198255e-02       2.326055315399e+04 
       2.580754454611e-02       2.318958722653e+04 
       2.594163123631e-02       2.311829947099e+04 
       2.607589593300e-02       2.304654376984e+04 
       2.621034261479e-02       2.297449824531e+04 
       2.634497536185e-02       2.290210341554e+04 
       2.647979835894e-02       2.282933750571e+04 
       2.661481589840e-02       2.275632548459e+04 
       2.675003238342e-02       2.268290693336e+04 
       2.688545233126e-02       2.260931790076e+04 
       2.702108037675e-02       2.253534092320e+04 
       2.715692127577e-02       2.246115253840e+04 
       2.729297990897e-02       2.238660394040e+04 
       2.742926128557e-02       2.231186373649e+04 
       2.756577054733e-02       2.223685656077e+04 
       2.770251297267e-02       2.216158436118e+04 
       2.783949398092e-02       2.208612943173e+04 
       2.797671913679e-02       2.201040452440e+04 
       2.811419415494e-02       2.193455307990e+04 
       2.825192490481e-02       2.185841690763e+04 
       2.838991741555e-02       2.178210045331e+04 
       2.852817788127e-02       2.170561722451e+04 
       2.866671266635e-02       2.162892763807e+04 
       2.880552831111e-02       2.155210914528e+04 
       2.894463153759e-02       2.147511044011e+04 
       2.908402925567e-02       2.139798260619e+04 
       2.922372856936e-02       2.132068555635e+04 
       2.936373678342e-02       2.124327325646e+04 
       2.950406141022e-02       2.116573147698e+04 
       2.964471017687e-02       2.108805693643e+04 
       2.978569103277e-02       2.101033957817e+04 
       2.992701215731e-02       2.093240151368e+04 
       3.006868196806e-02       2.085442048322e+04 
       3.021070912927e-02       2.077633139091e+04 
       3.035310256068e-02       2.069818392187e+04 
       3.049587144687e-02       2.061992232140e+04 
       3.063902524688e-02       2.054159667109e+04 
       3.078257370436e-02       2.046317912991e+04 
       3.092652685820e-02       2.038481574963e+04 
       3.107089505357e-02       2.030632021136e+04 
       3.121568895357e-02       2.022777492769e+04 
       3.136091955138e-02       2.014915467502e+04 
       3.150659818297e-02       2.007062952733e+04 
       3.165273654054e-02       1.999196127984e+04 
       3.179934668645e-02       1.991329215232e+04 
       3.194644106796e-02       1.983455533737e+04 
       3.209403253267e-02       1.975588753840e+04 
       3.224213434472e-02       1.967716503917e+04 
       3.239076020181e-02       1.959842745978e+04 
       3.253992425313e-02       1.951966871488e+04 
       3.268964111818e-02       1.944091456697e+04 
       3.283992590658e-02       1.936226491277e+04 
       3.299079423897e-02       1.928362231581e+04 
       3.314226226895e-02       1.920485008465e+04 
       3.329434670630e-02       1.912617267864e+04 
       3.344706484135e-02       1.904752212261e+04 
       3.360043457084e-02       1.896891507738e+04 
       3.375447442509e-02       1.889036622868e+04 
       3.390920359676e-02       1.881177775763e+04 
       3.406464197128e-02       1.873325895158e+04 
       3.422081015900e-02       1.865470582560e+04 
       3.437772952917e-02       1.857624222288e+04 
       3.453542224604e-02       1.849788356672e+04 
       3.469391130702e-02       1.841948437999e+04 
       3.485322058317e-02       1.834113767688e+04 
       3.501337486221e-02       1.826285036482e+04 
       3.517439989409e-02       1.818464928901e+04 
       3.533632243957e-02       1.810643007949e+04 
       3.549917032167e-02       1.802832432929e+04 
       3.566297248067e-02       1.795022930517e+04 
       3.582775903246e-02       1.787217424818e+04 
       3.599356133085e-02       1.779417755475e+04 
       3.616041203406e-02       1.771626058722e+04 
       3.632834517558e-02       1.763839238641e+04 
       3.649739624002e-02       1.756057483728e+04 
       3.666760224411e-02       1.748281341920e+04 
       3.683900182345e-02       1.740508009729e+04 
       3.701163532546e-02       1.732744465534e+04 
       3.718554490898e-02       1.724981944707e+04 
       3.736077465121e-02       1.717225621673e+04 
       3.753737066260e-02       1.709473666465e+04 
       3.771538121042e-02       1.701723302221e+04 
       3.789485685168e-02       1.693986783648e+04 
       3.807585057652e-02       1.686250280423e+04 
       3.825841796276e-02       1.678517194886e+04 
       3.844261734291e-02       1.670782704884e+04 
       3.862850998468e-02       1.663052027994e+04 
       3.881616028642e-02       1.655330256468e+04 
       3.900563598888e-02       1.647610105965e+04 
       3.919700840513e-02       1.639890861557e+04 
       3.939035267023e-02       1.632173818141e+04 
       3.958574801293e-02       1.624457581154e+04 
       3.978327805174e-02       1.616742370558e+04 
       3.998303111783e-02       1.609030590309e+04 
       4.018510060791e-02       1.601317900581e+04 
       4.038958537032e-02       1.593605257686e+04 
       4.059659012817e-02       1.585885986446e+04 
       4.080622594378e-02       1.578162971693e+04 
       4.101861072937e-02       1.570438972614e+04 
       4.123386980940e-02       1.562716453859e+04 
       4.145213654116e-02       1.554985278808e+04 
       4.167355300054e-02       1.547248113039e+04 
       4.189827074156e-02       1.539505310725e+04 
       4.212645163904e-02       1.531752592181e+04 
       4.235826882557e-02       1.523994482613e+04 
       4.259390773534e-02       1.516220932744e+04 
       4.283356726970e-02       1.508441398960e+04 
       4.307746110156e-02       1.500648269422e+04 
       4.332581913852e-02       1.492837600881e+04 
       4.357888916813e-02       1.485014355423e+04 
       4.383693871263e-02       1.477167230598e+04 
       4.410025712531e-02       1.469309608724e+04 
       4.436915796646e-02       1.461425059560e+04 
       4.464398170391e-02       1.453512107597e+04 
       4.492509879160e-02       1.445579460027e+04 
       4.521291318980e-02       1.437618417387e+04 
       4.550786640349e-02       1.429622206630e+04 
       4.581044213042e-02       1.421592582684e+04 
       4.612117162962e-02       1.413525101496e+04 
       4.644063994446e-02       1.405419099540e+04 
       4.676949314338e-02       1.397263688126e+04 
       4.710844677777e-02       1.389065021208e+04 
       4.745829580157e-02       1.380808891096e+04 
       4.781992625429e-02       1.372492130415e+04 
       4.819432908088e-02       1.364112947355e+04 
       4.858261655253e-02       1.355657783563e+04 
       4.898604186811e-02       1.347129288234e+04 
       4.940602266248e-02       1.338509625054e+04 
       4.984416933495e-02       1.329792984650e+04 
       5.030231934985e-02       1.320969186008e+04 
       5.078257896401e-02       1.312021902890e+04 
       5.128737422008e-02       1.302943319670e+04 
       5.181951352497e-02       1.293708429104e+04 
       5.238226472316e-02       1.284297751405e+04 
       5.297945027734e-02       1.274686774479e+04 
       5.361556495308e-02       1.264840865297e+04 
       5.429592117397e-02       1.254722157421e+04 
       5.502682772199e-02       1.244277719305e+04 
       5.581580716828e-02       1.233444404843e+04 
       5.667185522183e-02       1.222133583549e+04 
       5.760573891527e-02       1.210236594892e+04 
       5.863031621452e-02       1.197592611989e+04 
       5.976083042838e-02       1.184007792935e+04 
