# Matter power spectrum P(k) at redshift z=0
# for k=1.0274e-05 to 14.0817 h/Mpc,
# number of wavenumbers equal to 736
#    1:k (h/Mpc)              2:P (Mpc/h)^3        
       1.027404210298e-05       5.276462686858e+01 
       2.288320984717e-05       1.143183052287e+02 
       3.553498657699e-05       1.748448286426e+02 
       4.826198878475e-05       2.349652739028e+02 
       6.109735106795e-05       2.950342458048e+02 
       7.407500929027e-05       3.553179042029e+02 
       8.722999244711e-05       4.160439850023e+02 
       1.005987269674e-04       4.774222321532e+02 
       1.142193572127e-04       5.396548920591e+02 
       1.281320859662e-04       6.029430179311e+02 
       1.423795387162e-04       6.674908366912e+02 
       1.570071555031e-04       7.335091258171e+02 
       1.720636139676e-04       8.012180702023e+02 
       1.876012869688e-04       8.708498718637e+02 
       2.036767376417e-04       9.426512247589e+02 
       2.203512539515e-04       1.016885772135e+03 
       2.376914235323e-04       1.093836554027e+03 
       2.557697477175e-04       1.173808488213e+03 
       2.746652909520e-04       1.257130861629e+03 
       2.944643579864e-04       1.344159809042e+03 
       3.152611860734e-04       1.435280702600e+03 
       3.371586325063e-04       1.530910379468e+03 
       3.602688289253e-04       1.631499032614e+03 
       3.847137626143e-04       1.737531631000e+03 
       4.106257314273e-04       1.849528565023e+03 
       4.381476032424e-04       1.968045257271e+03 
       4.674327937222e-04       2.093670350408e+03 
       4.986448592449e-04       2.227022011782e+03 
       5.319565878721e-04       2.368741949374e+03 
       5.675484642057e-04       2.519486576250e+03 
       6.056063893932e-04       2.679915008898e+03 
       6.463185617755e-04       2.850673527003e+03 
       6.898714729482e-04       3.032376527391e+03 
       7.364450523790e-04       3.225584346408e+03 
       7.862071002607e-04       3.430778645784e+03 
       8.393072741912e-04       3.648336924061e+03 
       8.958710221081e-04       3.878507753496e+03 
       9.559939546338e-04       4.121389223197e+03 
       1.019737194224e-03       4.376912732371e+03 
       1.087124201626e-03       4.644834264202e+03 
       1.158139453616e-03       4.924734670795e+03 
       1.232729144483e-03       5.216029119285e+03 
       1.310803844125e-03       5.517985430515e+03 
       1.392242817552e-03       5.829709310062e+03 
       1.476899540373e-03       6.150286492535e+03 
       1.564607861759e-03       6.478710491448e+03 
       1.655188274930e-03       6.813940595909e+03 
       1.748453837907e-03       7.154932326781e+03 
       1.844215413756e-03       7.500660976768e+03 
       1.942286037802e-03       7.850140246090e+03 
       2.042484344046e-03       8.202436647592e+03 
       2.144637079630e-03       8.556678681560e+03 
       2.248580800163e-03       8.912062920715e+03 
       2.354162872584e-03       9.267856168043e+03 
       2.461241922659e-03       9.623394426790e+03 
       2.569687858549e-03       9.978081846802e+03 
       2.679381586940e-03       1.033138645778e+04 
       2.790214519180e-03       1.068283602197e+04 
       2.902087945205e-03       1.103201499003e+04 
       3.014912334897e-03       1.137855645976e+04 
       3.128606610855e-03       1.172214096067e+04 
       3.243097423772e-03       1.206249045436e+04 
       3.358318451498e-03       1.239936506179e+04 
       3.474209735220e-03       1.273255390370e+04 
       3.590717060462e-03       1.306188151326e+04 
       3.707791386580e-03       1.338719545415e+04 
       3.825388325559e-03       1.370837074371e+04 
       3.943467669046e-03       1.402529722310e+04 
       4.061992961333e-03       1.433788813623e+04 
       4.180931115321e-03       1.464607232056e+04 
       4.300252068119e-03       1.494978920007e+04 
       4.419928472833e-03       1.524899448844e+04 
       4.539935423149e-03       1.554364992953e+04 
       4.660250207439e-03       1.583373737207e+04 
       4.780852089355e-03       1.611922680253e+04 
       4.901722112084e-03       1.640012349542e+04 
       5.022842923700e-03       1.667643077470e+04 
       5.144198621287e-03       1.694814045613e+04 
       5.265774611752e-03       1.721526757923e+04 
       5.387557487452e-03       1.747782110678e+04 
       5.509534914975e-03       1.773581579611e+04 
       5.631695535596e-03       1.798927826206e+04 
       5.754028876100e-03       1.823822503986e+04 
       5.876525268804e-03       1.848268650028e+04 
       5.999175779758e-03       1.872269479005e+04 
       6.121972144215e-03       1.895827832828e+04 
       6.244906708570e-03       1.918946430527e+04 
       6.367972378052e-03       1.941629459095e+04 
       6.491162569555e-03       1.963879457795e+04 
       6.614471169042e-03       1.985701058761e+04 
       6.737892493041e-03       2.007097924903e+04 
       6.861421253793e-03       2.028073298778e+04 
       6.985052527673e-03       2.048631432854e+04 
       7.108781726541e-03       2.068776279186e+04 
       7.232604571725e-03       2.088511234100e+04 
       7.356517070358e-03       2.107841102817e+04 
       7.480515493839e-03       2.126770014515e+04 
       7.604596358212e-03       2.145302651361e+04 
       7.728756406254e-03       2.163441393436e+04 
       7.852992591126e-03       2.181192059734e+04 
       7.977302061418e-03       2.198558242276e+04 
       8.101682147467e-03       2.215542351359e+04 
       8.226130348828e-03       2.232151672302e+04 
       8.350644322769e-03       2.248389259719e+04 
       8.475221873730e-03       2.264258286777e+04 
       8.599860943624e-03       2.279763599903e+04 
       8.724559602926e-03       2.294908257344e+04 
       8.849316042466e-03       2.309697355044e+04 
       8.974128565875e-03       2.324134303403e+04 
       9.098995582617e-03       2.338223550814e+04 
       9.223915601555e-03       2.351969050454e+04 
       9.348887225023e-03       2.365374133089e+04 
       9.473909143333e-03       2.378442734505e+04 
       9.598980129706e-03       2.391179570532e+04 
       9.724099035576e-03       2.403586709015e+04 
       9.849264786243e-03       2.415669405887e+04 
       9.974476376846e-03       2.427431102566e+04 
       1.009973286863e-02       2.438874654267e+04 
       1.022503338547e-02       2.450005320870e+04 
       1.035037711069e-02       2.460825725956e+04 
       1.047576328402e-02       2.471338797510e+04 
       1.060119119888e-02       2.481549174562e+04 
       1.072666019978e-02       2.491460438083e+04 
       1.085216967991e-02       2.501074606406e+04 
       1.097771907894e-02       2.510397547298e+04 
       1.110330788092e-02       2.519431470409e+04 
       1.122893561237e-02       2.528179783782e+04 
       1.135460184048e-02       2.536646577261e+04 
       1.148030617143e-02       2.544834694749e+04 
       1.160604824887e-02       2.552748595544e+04 
       1.173182775242e-02       2.560390303100e+04 
       1.185764439638e-02       2.567763433055e+04 
       1.198349792843e-02       2.574871250711e+04 
       1.210938812850e-02       2.581717499113e+04 
       1.223531480768e-02       2.588305381407e+04 
       1.236127780719e-02       2.594636699647e+04 
       1.248727699749e-02       2.600717182564e+04 
       1.261331227736e-02       2.606547579526e+04 
       1.273938357316e-02       2.612132308413e+04 
       1.286549083801e-02       2.617474602431e+04 
       1.299163405118e-02       2.622576689088e+04 
       1.311781321738e-02       2.627442103201e+04 
       1.324402836623e-02       2.632073753700e+04 
       1.337027955170e-02       2.636473651385e+04 
       1.349656685160e-02       2.640646871774e+04 
       1.362289036716e-02       2.644593999677e+04 
       1.374925022257e-02       2.648318849063e+04 
       1.387564656466e-02       2.651824867819e+04 
       1.400207956250e-02       2.655113770753e+04 
       1.412854940714e-02       2.658188524730e+04 
       1.425505631131e-02       2.661052483486e+04 
       1.438160050918e-02       2.663707695634e+04 
       1.450818225617e-02       2.666156853836e+04 
       1.463480182871e-02       2.668403415697e+04 
       1.476145952416e-02       2.670448878553e+04 
       1.488815566058e-02       2.672296673629e+04 
       1.501489057672e-02       2.673949034995e+04 
       1.514166463185e-02       2.675408878831e+04 
       1.526847820578e-02       2.676678994319e+04 
       1.539533169875e-02       2.677760534202e+04 
       1.552222553145e-02       2.678656450042e+04 
       1.564916014502e-02       2.679369236844e+04 
       1.577613600109e-02       2.679904519261e+04 
       1.590315358178e-02       2.680259737050e+04 
       1.603021338980e-02       2.680439595778e+04 
       1.615731594853e-02       2.680446529707e+04 
       1.628446180211e-02       2.680284584534e+04 
       1.641165151557e-02       2.679952188133e+04 
       1.653888567495e-02       2.679454437796e+04 
       1.666616488747e-02       2.678793729157e+04 
       1.679348978171e-02       2.677971404146e+04 
       1.692086100778e-02       2.676989073311e+04 
       1.704827923753e-02       2.675851329358e+04 
       1.717574516477e-02       2.674558362126e+04 
       1.730325950554e-02       2.673111915005e+04 
       1.743082299832e-02       2.671519185451e+04 
       1.755843640434e-02       2.669774623194e+04 
       1.768610050784e-02       2.667886479159e+04 
       1.781381611639e-02       2.665853947971e+04 
       1.794158406122e-02       2.663680944846e+04 
       1.806940519756e-02       2.661369044369e+04 
       1.819728040496e-02       2.658920278288e+04 
       1.832521058771e-02       2.656334410225e+04 
       1.845319667518e-02       2.653617616564e+04 
       1.858123962229e-02       2.650768514086e+04 
       1.870934040986e-02       2.647791892441e+04 
       1.883750004510e-02       2.644690333840e+04 
       1.896571956207e-02       2.641461503043e+04 
       1.909400002211e-02       2.638111084799e+04 
       1.922234251438e-02       2.634641034185e+04 
       1.935074815635e-02       2.631051370372e+04 
       1.947921809435e-02       2.627346117687e+04 
       1.960775350410e-02       2.623527136240e+04 
       1.973635559129e-02       2.619593387866e+04 
       1.986502559215e-02       2.615550758473e+04 
       1.999376477410e-02       2.611396454457e+04 
       2.012257443634e-02       2.607139268915e+04 
       2.025145591054e-02       2.602773404389e+04 
       2.038041056146e-02       2.598305547088e+04 
       2.050943978770e-02       2.593737285287e+04 
       2.063854502239e-02       2.589070301412e+04 
       2.076772773392e-02       2.584304972146e+04 
       2.089698942675e-02       2.579446028740e+04 
       2.102633164215e-02       2.574494341733e+04 
       2.115575595902e-02       2.569443568032e+04 
       2.128526399478e-02       2.564306752492e+04 
       2.141485740618e-02       2.559081486644e+04 
       2.154453789022e-02       2.553767238126e+04 
       2.167430718506e-02       2.548370277511e+04 
       2.180416707100e-02       2.542891210290e+04 
       2.193411937143e-02       2.537326702954e+04 
       2.206416595385e-02       2.531684453575e+04 
       2.219430873092e-02       2.525960271667e+04 
       2.232454966154e-02       2.520160318765e+04 
       2.245489075195e-02       2.514287647202e+04 
       2.258533405688e-02       2.508339858770e+04 
       2.271588168074e-02       2.502320466122e+04 
       2.284653577881e-02       2.496222966345e+04 
       2.297729855853e-02       2.490069226028e+04 
       2.310817228079e-02       2.483842789263e+04 
       2.323915926125e-02       2.477545522575e+04 
       2.337026187174e-02       2.471186746058e+04 
       2.350148254167e-02       2.464765931725e+04 
       2.363282375951e-02       2.458278397478e+04 
       2.376428807431e-02       2.451733080967e+04 
       2.389587809726e-02       2.445130227098e+04 
       2.402759650330e-02       2.438471240890e+04 
       2.415944603280e-02       2.431753002765e+04 
       2.429142949330e-02       2.424981842666e+04 
       2.442354976126e-02       2.418154422172e+04 
       2.455580978391e-02       2.411282716837e+04 
       2.468821258116e-02       2.404353978780e+04 
       2.482076124757e-02       2.397375610227e+04 
       2.495345895435e-02       2.390355852345e+04 
       2.508630895149e-02       2.383280104934e+04 
       2.521931456991e-02       2.376158265388e+04 
       2.535247922371e-02       2.369003518576e+04 
       2.548580641249e-02       2.361799310779e+04 
       2.561929972376e-02       2.354552536174e+04 
       2.575296283539e-02       2.347266376275e+04 
       2.588679951822e-02       2.339942124773e+04 
       2.602081363871e-02       2.332576614658e+04 
       2.615500916165e-02       2.325179759542e+04 
       2.628939015308e-02       2.317743526270e+04 
       2.642396078319e-02       2.310272200283e+04 
       2.655872532941e-02       2.302768493532e+04 
       2.669368817957e-02       2.295237874029e+04 
       2.682885383517e-02       2.287666364111e+04 
       2.696422691483e-02       2.280068393527e+04 
       2.709981215777e-02       2.272435593061e+04 
       2.723561442751e-02       2.264786413335e+04 
       2.737163871567e-02       2.257106188221e+04 
       2.750789014590e-02       2.249400881576e+04 
       2.764437397797e-02       2.241665057883e+04 
       2.778109561207e-02       2.233911550708e+04 
       2.791806059317e-02       2.226130899374e+04 
       2.805527461563e-02       2.218338661659e+04 
       2.819274352800e-02       2.210511840122e+04 
       2.833047333793e-02       2.202668238019e+04 
       2.846847021736e-02       2.194805902892e+04 
       2.860674050786e-02       2.186924166722e+04 
       2.874529072623e-02       2.179022335717e+04 
       2.888412757030e-02       2.171111384328e+04 
       2.902325792497e-02       2.163179540533e+04 
       2.916268886854e-02       2.155237039663e+04 
       2.930242767921e-02       2.147274778619e+04 
       2.944248184197e-02       2.139298605377e+04 
       2.958285905574e-02       2.131315354804e+04 
       2.972356724076e-02       2.123317187160e+04 
       2.986461454636e-02       2.115311549228e+04 
       3.000600935908e-02       2.107291030081e+04 
       3.014776031110e-02       2.099259118971e+04 
       3.028987628910e-02       2.091222028608e+04 
       3.043236644343e-02       2.083173123750e+04 
       3.057524019780e-02       2.075120009407e+04 
       3.071850725934e-02       2.067052667763e+04 
       3.086217762918e-02       2.058992402326e+04 
       3.100626161341e-02       2.050911364686e+04 
       3.115076983473e-02       2.042826805174e+04 
       3.129571324449e-02       2.034744821557e+04 
       3.144110313540e-02       2.026655777615e+04 
       3.158695115479e-02       2.018566661829e+04 
       3.173326931861e-02       2.010472388910e+04 
       3.188007002602e-02       2.002372501385e+04 
       3.202736607473e-02       1.994271588983e+04 
       3.217517067717e-02       1.986166227364e+04 
       3.232349747744e-02       1.978063505562e+04 
       3.247236056905e-02       1.969965426709e+04 
       3.262177451377e-02       1.961855741252e+04 
       3.277175436123e-02       1.953758373561e+04 
       3.292231566978e-02       1.945659563193e+04 
       3.307347452830e-02       1.937552186807e+04 
       3.322524757924e-02       1.929449275466e+04 
       3.337765204299e-02       1.921350142612e+04 
       3.353070574345e-02       1.913254825327e+04 
       3.368442713515e-02       1.905164287944e+04 
       3.383883533184e-02       1.897069227396e+04 
       3.399395013675e-02       1.888981125264e+04 
       3.414979207451e-02       1.880888890087e+04 
       3.430638242505e-02       1.872813387115e+04 
       3.446374325938e-02       1.864733798778e+04 
       3.462189747762e-02       1.856653153153e+04 
       3.478086884924e-02       1.848582002684e+04 
       3.494068205579e-02       1.840515751715e+04 
       3.510136273624e-02       1.832454312615e+04 
       3.526293753527e-02       1.824389398881e+04 
       3.542543415443e-02       1.816339758045e+04 
       3.558888140678e-02       1.808290566533e+04 
       3.575330927493e-02       1.800243972202e+04 
       3.591874897296e-02       1.792200636309e+04 
       3.608523301249e-02       1.784171268635e+04 
       3.625279527315e-02       1.776137581018e+04 
       3.642147107789e-02       1.768105942576e+04 
       3.659129727355e-02       1.760087283077e+04 
       3.676231231704e-02       1.752066032846e+04 
       3.693455636766e-02       1.744049004994e+04 
       3.710807138611e-02       1.736043150873e+04 
       3.728290124070e-02       1.728032361407e+04 
       3.745909182154e-02       1.720029258846e+04 
       3.763669116322e-02       1.712031333807e+04 
       3.781574957691e-02       1.704037722766e+04 
       3.799631979273e-02       1.696050715001e+04 
       3.817845711330e-02       1.688056725026e+04 
       3.836221957953e-02       1.680068856542e+04 
       3.854766814992e-02       1.672082580199e+04 
       3.873486689461e-02       1.664099133418e+04 
       3.892388320563e-02       1.656117349998e+04 
       3.911478802516e-02       1.648140254163e+04 
       3.930765609335e-02       1.640156961160e+04 
       3.950256621807e-02       1.632175231810e+04 
       3.969960156871e-02       1.624190378719e+04 
       3.989884999665e-02       1.616206541085e+04 
       4.010040438546e-02       1.608223119304e+04 
       4.030436303393e-02       1.600230540126e+04 
       4.051083007594e-02       1.592238398452e+04 
       4.071991594114e-02       1.584244392507e+04 
       4.093173786152e-02       1.576235930031e+04 
       4.114642042920e-02       1.568228896780e+04 
       4.136409621172e-02       1.560213453778e+04 
       4.158490643213e-02       1.552184944581e+04 
       4.180900172196e-02       1.544150677206e+04 
       4.203654295656e-02       1.536104201517e+04 
       4.226770218379e-02       1.528049369760e+04 
       4.250266365845e-02       1.519974115578e+04 
       4.274162499724e-02       1.511881855092e+04 
       4.298479847103e-02       1.503780855761e+04 
       4.323241245419e-02       1.495655918454e+04 
       4.348471305404e-02       1.487509677187e+04 
       4.374196594750e-02       1.479343517402e+04 
       4.400445845656e-02       1.471152125900e+04 
       4.427250190020e-02       1.462931158320e+04 
       4.454643426706e-02       1.454680272790e+04 
       4.482662326158e-02       1.446396667644e+04 
       4.511346978655e-02       1.438076646532e+04 
       4.540741193724e-02       1.429722389659e+04 
       4.570892959762e-02       1.421321086894e+04 
       4.601854974768e-02       1.412872093417e+04 
       4.633685261409e-02       1.404377695362e+04 
       4.666447882487e-02       1.395823130461e+04 
       4.700213776448e-02       1.387206854963e+04 
       4.735061737027e-02       1.378531351728e+04 
       4.771079566713e-02       1.369776902510e+04 
       4.808365440785e-02       1.360942549933e+04 
       4.847029527579e-02       1.352025664516e+04 
       4.887195921988e-02       1.343006169055e+04 
       4.929004963614e-02       1.333885428516e+04 
       4.972616029350e-02       1.324644847806e+04 
       5.018210913605e-02       1.315271885439e+04 
       5.065997939168e-02       1.305750613133e+04 
       5.116216979445e-02       1.296067616214e+04 
       5.169145620055e-02       1.286190021921e+04 
       5.225106746003e-02       1.276105131254e+04 
       5.284477910021e-02       1.265774177387e+04 
       5.347702915686e-02       1.255163219353e+04 
       5.415306126340e-02       1.244223422365e+04 
       5.487910064565e-02       1.232894998776e+04 
       5.566256845959e-02       1.221106595353e+04 
       5.651233789428e-02       1.208755110541e+04 
       5.743902957315e-02       1.195720935852e+04 
       5.845533018972e-02       1.181838945936e+04 
       5.957629042112e-02       1.166881998046e+04 
