# Matter power spectrum P(k) at redshift z=0
# for k=0.000115549 to 14.4672 h/Mpc,
# number of wavenumbers equal to 737
#    1:k (h/Mpc)              2:P (Mpc/h)^3        
       1.155492699031e-04       2.197312121595e+02 
       1.294727286523e-04       3.087686041370e+02 
       1.437297939262e-04       3.985519248938e+02 
       1.583653251810e-04       4.883733323327e+02 
       1.734273601145e-04       5.781879334085e+02 
       1.889675598979e-04       6.682357650127e+02 
       2.050416905810e-04       7.588844156860e+02 
       2.217101426284e-04       8.505534449848e+02 
       2.390384893422e-04       9.436902387376e+02 
       2.570980831318e-04       1.038750008523e+03 
       2.759666860213e-04       1.136198848773e+03 
       2.957291271917e-04       1.236519549333e+03 
       3.164779754652e-04       1.340196185206e+03 
       3.383142081433e-04       1.447741607540e+03 
       3.613478492069e-04       1.559686293358e+03 
       3.856985393241e-04       1.676585121950e+03 
       4.114959873015e-04       1.799019466450e+03 
       4.388802377389e-04       1.927597913514e+03 
       4.680016734051e-04       2.062955759345e+03 
       4.990206546651e-04       2.205752485354e+03 
       5.321066846207e-04       2.356666704269e+03 
       5.674369811830e-04       2.516388398568e+03 
       6.051943410816e-04       2.685607856575e+03 
       6.455642017862e-04       2.865001037086e+03 
       6.887308514108e-04       3.055211497959e+03 
       7.348728080131e-04       3.256828976816e+03 
       7.841574881252e-04       3.470365506586e+03 
       8.367354026148e-04       3.696230335354e+03 
       8.927342399487e-04       3.934705293387e+03 
       9.522532981282e-04       4.185922986265e+03 
       1.015358778439e-03       4.449849863074e+03 
       1.082080432145e-03       4.726276452467e+03 
       1.152409944399e-03       5.014816164758e+03 
       1.226301257996e-03       5.314913374484e+03 
       1.303672814712e-03       5.625860234714e+03 
       1.384411469237e-03       5.946785010749e+03 
       1.468377655442e-03       6.276777085526e+03 
       1.555411288156e-03       6.614838303292e+03 
       1.645337874686e-03       6.959925821863e+03 
       1.737974376256e-03       7.310986940153e+03 
       1.833134473497e-03       7.666983388618e+03 
       1.930633021525e-03       8.026911153608e+03 
       2.030289603490e-03       8.389816065781e+03 
       2.131931190500e-03       8.754803733647e+03 
       2.235393984345e-03       9.121047095660e+03 
       2.340524558388e-03       9.487788888744e+03 
       2.447180427115e-03       9.854342100149e+03 
       2.555230172796e-03       1.022008875349e+04 
       2.664553245443e-03       1.058447562556e+04 
       2.775039534782e-03       1.094701246122e+04 
       2.886588794205e-03       1.130726477217e+04 
       2.999109978834e-03       1.166485101277e+04 
       3.112520544160e-03       1.201943766524e+04 
       3.226745738718e-03       1.237073369353e+04 
       3.341717913845e-03       1.271848702132e+04 
       3.457375865577e-03       1.306247747739e+04 
       3.573664217734e-03       1.340251884037e+04 
       3.690532850880e-03       1.373845266830e+04 
       3.807936378806e-03       1.407014179887e+04 
       3.925833672054e-03       1.439747243708e+04 
       4.044187426676e-03       1.472035230813e+04 
       4.162963775579e-03       1.503870246571e+04 
       4.282131939353e-03       1.535245915609e+04 
       4.401663913317e-03       1.566157664953e+04 
       4.521534187472e-03       1.596601389061e+04 
       4.641719496209e-03       1.626574327099e+04 
       4.762198594730e-03       1.656074190069e+04 
       4.882952059422e-03       1.685101036767e+04 
       5.003962109599e-03       1.713655326624e+04 
       5.125212448310e-03       1.741735373828e+04 
       5.246688120093e-03       1.769344445251e+04 
       5.368375383816e-03       1.796481633509e+04 
       5.490261598910e-03       1.823148967314e+04 
       5.612335123509e-03       1.849348965090e+04 
       5.734585223158e-03       1.875083603730e+04 
       5.857001988925e-03       1.900355336760e+04 
       5.979576263863e-03       1.925167862188e+04 
       6.102299576901e-03       1.949523689363e+04 
       6.225164083350e-03       1.973425861047e+04 
       6.348162511301e-03       1.996878766255e+04 
       6.471288113274e-03       2.019884893893e+04 
       6.594534622556e-03       2.042448689461e+04 
       6.717896213722e-03       2.064574316640e+04 
       6.841367466907e-03       2.086265127058e+04 
       6.964943335421e-03       2.107525355594e+04 
       7.088619116375e-03       2.128359136145e+04 
       7.212390423995e-03       2.148770064773e+04 
       7.336253165359e-03       2.168762459390e+04 
       7.460203518311e-03       2.188341069491e+04 
       7.584237911328e-03       2.207511084273e+04 
       7.708353005157e-03       2.226274201137e+04 
       7.832545676043e-03       2.244636484673e+04 
       7.956813000395e-03       2.262601423389e+04 
       8.081152240750e-03       2.280173072971e+04 
       8.205560832922e-03       2.297356382467e+04 
       8.330036374207e-03       2.314156623236e+04 
       8.454576612564e-03       2.330576327697e+04 
       8.579179436678e-03       2.346620351182e+04 
       8.703842866811e-03       2.362292032589e+04 
       8.828565046392e-03       2.377596617005e+04 
       8.953344234265e-03       2.392537971883e+04 
       9.078178797545e-03       2.407120080769e+04 
       9.203067205020e-03       2.421346853288e+04 
       9.328008021070e-03       2.435222847202e+04 
       9.452999900035e-03       2.448751206824e+04 
       9.578041581013e-03       2.461936997484e+04 
       9.703131883050e-03       2.474782286566e+04 
       9.828269700677e-03       2.487292408606e+04 
       9.953453999779e-03       2.499471228682e+04 
       1.007868381377e-02       2.511321694536e+04 
       1.020395824003e-02       2.522848449033e+04 
       1.032927643663e-02       2.534055211516e+04 
       1.045463761923e-02       2.544944388385e+04 
       1.058004105828e-02       2.555521039166e+04 
       1.070548607635e-02       2.565789396973e+04 
       1.083097204567e-02       2.575750844139e+04 
       1.095649838585e-02       2.585411699199e+04 
       1.108206456176e-02       2.594773810051e+04 
       1.120767008154e-02       2.603841206296e+04 
       1.133331449477e-02       2.612616893006e+04 
       1.145899739074e-02       2.621105539282e+04 
       1.158471839688e-02       2.629310641529e+04 
       1.171047717723e-02       2.637234282316e+04 
       1.183627343113e-02       2.644881125613e+04 
       1.196210689184e-02       2.652253504719e+04 
       1.208797732543e-02       2.659355966060e+04 
       1.221388452963e-02       2.666190413960e+04 
       1.233982833277e-02       2.672761605240e+04 
       1.246580859289e-02       2.679072458635e+04 
       1.259182519676e-02       2.685126233174e+04 
       1.271787805912e-02       2.690925622630e+04 
       1.284396712189e-02       2.696474466307e+04 
       1.297009235346e-02       2.701775871881e+04 
       1.309625374803e-02       2.706832802210e+04 
       1.322245132501e-02       2.711648170881e+04 
       1.334868512847e-02       2.716225458952e+04 
       1.347495522662e-02       2.720566865782e+04 
       1.360126171131e-02       2.724675422476e+04 
       1.372760469767e-02       2.728555148028e+04 
       1.385398432367e-02       2.732206774406e+04 
       1.398040074975e-02       2.735636367582e+04 
       1.410685415856e-02       2.738843082355e+04 
       1.423334475461e-02       2.741833064460e+04 
       1.435987276407e-02       2.744606847157e+04 
       1.448643843449e-02       2.747167681607e+04 
       1.461304203465e-02       2.749519798662e+04 
       1.473968385437e-02       2.751664201043e+04 
       1.486636420435e-02       2.753603630136e+04 
       1.499308341611e-02       2.755341830926e+04 
       1.511984184183e-02       2.756881440540e+04 
       1.524663985431e-02       2.758223061004e+04 
       1.537347784693e-02       2.759372568404e+04 
       1.550035623362e-02       2.760329220399e+04 
       1.562727544885e-02       2.761097203145e+04 
       1.575423594765e-02       2.761680218279e+04 
       1.588123820565e-02       2.762077991100e+04 
       1.600828271915e-02       2.762295786171e+04 
       1.613537000516e-02       2.762334209459e+04 
       1.626250060153e-02       2.762195200969e+04 
       1.638967506705e-02       2.761885161451e+04 
       1.651689398158e-02       2.761402183974e+04 
       1.664415794620e-02       2.760750193433e+04 
       1.677146758337e-02       2.759932270373e+04 
       1.689882353714e-02       2.758948831209e+04 
       1.702622647330e-02       2.757802432044e+04 
       1.715367707967e-02       2.756499634531e+04 
       1.728117606626e-02       2.755036492785e+04 
       1.740872416556e-02       2.753418210314e+04 
       1.753632213281e-02       2.751650284675e+04 
       1.766397074628e-02       2.749730905231e+04 
       1.779167080755e-02       2.747662084789e+04 
       1.791942314186e-02       2.745447019466e+04 
       1.804722859841e-02       2.743088048356e+04 
       1.817508805076e-02       2.740590376427e+04 
       1.830300239714e-02       2.737950442633e+04 
       1.843097256087e-02       2.735174390894e+04 
       1.855899949074e-02       2.732262853390e+04 
       1.868708416147e-02       2.729218173822e+04 
       1.881522757408e-02       2.726044283978e+04 
       1.894343075640e-02       2.722739736084e+04 
       1.907169476353e-02       2.719309332479e+04 
       1.920002067831e-02       2.715753559208e+04 
       1.932840961184e-02       2.712076330616e+04 
       1.945686270401e-02       2.708278104835e+04 
       1.958538112404e-02       2.704361110149e+04 
       1.971396607104e-02       2.700327503321e+04 
       1.984261877462e-02       2.696181893353e+04 
       1.997134049546e-02       2.691922248401e+04 
       2.010013252596e-02       2.687551642840e+04 
       2.022899619088e-02       2.683075170421e+04 
       2.035793284801e-02       2.678489535018e+04 
       2.048694388886e-02       2.673804115917e+04 
       2.061603073935e-02       2.669009943283e+04 
       2.074519486061e-02       2.664115705934e+04 
       2.087443774965e-02       2.659121762025e+04 
       2.100376094022e-02       2.654035550292e+04 
       2.113316600360e-02       2.648848217867e+04 
       2.126265454940e-02       2.643570247312e+04 
       2.139222822646e-02       2.638203060520e+04 
       2.152188872372e-02       2.632744358478e+04 
       2.165163777117e-02       2.627200289734e+04 
       2.178147714075e-02       2.621562660510e+04 
       2.191140864733e-02       2.615842787762e+04 
       2.204143414975e-02       2.610041396814e+04 
       2.217155555184e-02       2.604157849895e+04 
       2.230177480349e-02       2.598198029149e+04 
       2.243209390174e-02       2.592156898197e+04 
       2.256251489195e-02       2.586041253216e+04 
       2.269303986893e-02       2.579849128343e+04 
       2.282367097820e-02       2.573582997236e+04 
       2.295441041721e-02       2.567247639917e+04 
       2.308526043664e-02       2.560838033543e+04 
       2.321622334172e-02       2.554356333168e+04 
       2.334730149360e-02       2.547816954874e+04 
       2.347849731081e-02       2.541219749154e+04 
       2.360981327065e-02       2.534547240667e+04 
       2.374125191075e-02       2.527812107067e+04 
       2.387281583062e-02       2.521016837166e+04 
       2.400450769325e-02       2.514164577106e+04 
       2.413633022676e-02       2.507253945961e+04 
       2.426828622613e-02       2.500284224830e+04 
       2.440037855498e-02       2.493259883139e+04 
       2.453261014737e-02       2.486185048845e+04 
       2.466498400971e-02       2.479050520817e+04 
       2.479750322271e-02       2.471872012850e+04 
       2.493017094339e-02       2.464637850849e+04 
       2.506299040718e-02       2.457362135999e+04 
       2.519596493006e-02       2.450031376422e+04 
       2.532909791079e-02       2.442666149272e+04 
       2.546239283324e-02       2.435247942057e+04 
       2.559585326875e-02       2.427788231814e+04 
       2.572948287860e-02       2.420290132321e+04 
       2.586328541658e-02       2.412744717600e+04 
       2.599726473163e-02       2.405162752297e+04 
       2.613142477053e-02       2.397541375232e+04 
       2.626576958083e-02       2.389887851715e+04 
       2.640030331369e-02       2.382194131457e+04 
       2.653503022696e-02       2.374467736290e+04 
       2.666995468833e-02       2.366704742318e+04 
       2.680508117862e-02       2.358911966668e+04 
       2.694041429510e-02       2.351091516269e+04 
       2.707595875507e-02       2.343239732376e+04 
       2.721171939944e-02       2.335354292928e+04 
       2.734770119656e-02       2.327444574176e+04 
       2.748390924611e-02       2.319505444409e+04 
       2.762034878317e-02       2.311545783216e+04 
       2.775702518245e-02       2.303553144850e+04 
       2.789394396269e-02       2.295534110545e+04 
       2.803111079118e-02       2.287507888467e+04 
       2.816853148856e-02       2.279448115390e+04 
       2.830621203367e-02       2.271364985729e+04 
       2.844415856874e-02       2.263264295076e+04 
       2.858237740465e-02       2.255152691939e+04 
       2.872087502654e-02       2.247016319164e+04 
       2.885965809951e-02       2.238863000798e+04 
       2.899873347468e-02       2.230694402838e+04 
       2.913810819540e-02       2.222507272110e+04 
       2.927778950380e-02       2.214306883773e+04 
       2.941778484754e-02       2.206092346703e+04 
       2.955810188692e-02       2.197862878317e+04 
       2.969874850226e-02       2.189620911835e+04 
       2.983973280157e-02       2.181368782999e+04 
       2.998106312861e-02       2.173104373717e+04 
       3.012274807127e-02       2.164837054088e+04 
       3.026479647034e-02       2.156551147011e+04 
       3.040721742865e-02       2.148264963061e+04 
       3.055002032065e-02       2.139958648803e+04 
       3.069321480238e-02       2.131653652301e+04 
       3.083681082199e-02       2.123339573264e+04 
       3.098081863064e-02       2.115013860951e+04 
       3.112524879398e-02       2.106691821959e+04 
       3.127011220415e-02       2.098361488196e+04 
       3.141542009237e-02       2.090027687312e+04 
       3.156118404209e-02       2.081694008703e+04 
       3.170741600287e-02       2.073351067955e+04 
       3.185412830482e-02       2.065002790082e+04 
       3.200133367389e-02       2.056653429695e+04 
       3.214904524780e-02       2.048307612547e+04 
       3.229727659288e-02       2.039950728283e+04 
       3.244604172171e-02       2.031608381798e+04 
       3.259535511168e-02       2.023249090091e+04 
       3.274523172456e-02       2.014906185373e+04 
       3.289568702703e-02       2.006554120568e+04 
       3.304673701240e-02       1.998202517369e+04 
       3.319839822338e-02       1.989853186055e+04 
       3.335068777621e-02       1.981505389230e+04 
       3.350362338602e-02       1.973159369623e+04 
       3.365722339371e-02       1.964820379666e+04 
       3.381150679420e-02       1.956479497977e+04 
       3.396649326641e-02       1.948141737860e+04 
       3.412220320492e-02       1.939809090862e+04 
       3.427865775347e-02       1.931477328695e+04 
       3.443587884041e-02       1.923154170963e+04 
       3.459388921631e-02       1.914829526173e+04 
       3.475271249381e-02       1.906512528821e+04 
       3.491237318991e-02       1.898194943974e+04 
       3.507289677080e-02       1.889884220511e+04 
       3.523430969964e-02       1.881575237387e+04 
       3.539663948720e-02       1.873276079268e+04 
       3.555991474583e-02       1.864981489159e+04 
       3.572416524693e-02       1.856689296897e+04 
       3.588942198214e-02       1.848394526350e+04 
       3.605571722863e-02       1.840117098686e+04 
       3.622308461881e-02       1.831841035500e+04 
       3.639155921474e-02       1.823566301143e+04 
       3.656117758772e-02       1.815298498264e+04 
       3.673197790347e-02       1.807033050349e+04 
       3.690400001331e-02       1.798771267593e+04 
       3.707728555197e-02       1.790515229728e+04 
       3.725187804248e-02       1.782265697694e+04 
       3.742782300887e-02       1.774015501901e+04 
       3.760516809730e-02       1.765778430088e+04 
       3.778396320650e-02       1.757534678595e+04 
       3.796426062818e-02       1.749297336492e+04 
       3.814611519854e-02       1.741062273800e+04 
       3.832958446188e-02       1.732831744464e+04 
       3.851472884733e-02       1.724601171118e+04 
       3.870161186028e-02       1.716379083830e+04 
       3.889030028958e-02       1.708152768696e+04 
       3.908086443253e-02       1.699924719606e+04 
       3.927337833909e-02       1.691697248021e+04 
       3.946792007761e-02       1.683475261168e+04 
       3.966457202416e-02       1.675244642431e+04 
       3.986342117815e-02       1.667019233001e+04 
       4.006455950695e-02       1.658793973487e+04 
       4.026808432299e-02       1.650558583548e+04 
       4.047409869670e-02       1.642321628318e+04 
       4.068271190975e-02       1.634077872669e+04 
       4.089403995305e-02       1.625835276624e+04 
       4.110820607511e-02       1.617579336155e+04 
       4.132534138666e-02       1.609317490887e+04 
       4.154558552875e-02       1.601051312965e+04 
       4.176908741212e-02       1.592771956740e+04 
       4.199600603736e-02       1.584482627726e+04 
       4.222651140612e-02       1.576177323828e+04 
       4.246078553596e-02       1.567865221755e+04 
       4.269902359279e-02       1.559532391212e+04 
       4.294143515757e-02       1.551182967493e+04 
       4.318824564629e-02       1.542809735310e+04 
       4.343969790580e-02       1.534423780461e+04 
       4.369605401166e-02       1.526008756683e+04 
       4.395759729886e-02       1.517573760654e+04 
       4.422463466191e-02       1.509107892304e+04 
       4.449749916726e-02       1.500610150556e+04 
       4.477655302921e-02       1.492080329887e+04 
       4.506219101028e-02       1.483514826349e+04 
       4.535484431882e-02       1.474906292485e+04 
       4.565498509156e-02       1.466257645126e+04 
       4.596313156641e-02       1.457561962207e+04 
       4.627985407331e-02       1.448814416064e+04 
       4.660578199838e-02       1.440011684971e+04 
       4.694161191086e-02       1.431143337810e+04 
       4.728811708504e-02       1.422211346340e+04 
       4.764615870337e-02       1.413208086946e+04 
       4.801669909445e-02       1.404121587694e+04 
       4.840081744514e-02       1.394943212091e+04 
       4.879972853487e-02       1.385672825432e+04 
       4.921480517811e-02       1.376288426649e+04 
       4.964760523719e-02       1.366788031113e+04 
       5.009990429179e-02       1.357154352474e+04 
       5.057373533734e-02       1.347370100872e+04 
       5.107143724632e-02       1.337419927057e+04 
       5.159571418133e-02       1.327279219751e+04 
       5.214970871084e-02       1.316926375956e+04 
       5.273709205348e-02       1.306327949208e+04 
       5.336217564555e-02       1.295445838421e+04 
       5.403004901325e-02       1.284234808151e+04 
       5.474674953681e-02       1.272638286629e+04 
       5.551946967219e-02       1.260578058379e+04 
       5.635680561312e-02       1.247962552918e+04 
       5.726904638797e-02       1.234667375638e+04 
       5.826849053758e-02       1.220529296566e+04 
       5.936975278159e-02       1.205329474364e+04 
       6.058997609746e-02       1.188782987810e+04 
       6.194878420281e-02       1.170502853274e+04 
       6.346769184413e-02       1.149978826291e+04 
       6.516856767383e-02       1.126574300350e+04 
       6.707073991278e-02       1.099529442629e+04 
       6.918670300177e-02       1.068053571768e+04 
       7.151736076363e-02       1.031503066621e+04 
       7.404900050506e-02       9.896409289548e+03 
