# Matter power spectrum P(k) at redshift z=0
# for k=1.0274e-05 to 14.0817 h/Mpc,
# number of wavenumbers equal to 736
#    1:k (h/Mpc)              2:P (Mpc/h)^3        
       1.027404210298e-05       5.252434936064e+01 
       2.288320984717e-05       1.137977360457e+02 
       3.553498657699e-05       1.740486231895e+02 
       4.826198878475e-05       2.338952907590e+02 
       6.109735106795e-05       2.936907195866e+02 
       7.407500929027e-05       3.536998572301e+02 
       8.722999244711e-05       4.141493999347e+02 
       1.005987269674e-04       4.752481366360e+02 
       1.142193572127e-04       5.371973924209e+02 
       1.281320859662e-04       6.001973039963e+02 
       1.423795387162e-04       6.644511686130e+02 
       1.570071555031e-04       7.301688014164e+02 
       1.720636139676e-04       7.975693852007e+02 
       1.876012869688e-04       8.668840600304e+02 
       2.036767376417e-04       9.383583971992e+02 
       2.203512539515e-04       1.012254835803e+03 
       2.376914235323e-04       1.088855121770e+03 
       2.557697477175e-04       1.168462783046e+03 
       2.746652909520e-04       1.251405601598e+03 
       2.944643579864e-04       1.338038080025e+03 
       3.152611860734e-04       1.428743830784e+03 
       3.371586325063e-04       1.523937775707e+03 
       3.602688289253e-04       1.624068051818e+03 
       3.847137626143e-04       1.729617392462e+03 
       4.106257314273e-04       1.841103794809e+03 
       4.381476032424e-04       1.959080124922e+03 
       4.674327937222e-04       2.084132301076e+03 
       4.986448592449e-04       2.216875627898e+03 
       5.319565878721e-04       2.357948825148e+03 
       5.675484642057e-04       2.508005248993e+03 
       6.056063893932e-04       2.667700906485e+03 
       6.463185617755e-04       2.837679036370e+03 
       6.898714729482e-04       3.018551098944e+03 
       7.364450523790e-04       3.210874739564e+03 
       7.862071002607e-04       3.415129277823e+03 
       8.393072741912e-04       3.631690351157e+03 
       8.958710221081e-04       3.860805269155e+03 
       9.559939546338e-04       4.102571602186e+03 
       1.019737194224e-03       4.356921037932e+03 
       1.087124201626e-03       4.623610774604e+03 
       1.158139453616e-03       4.902223735324e+03 
       1.232729144483e-03       5.192178062015e+03 
       1.310803844125e-03       5.492745286950e+03 
       1.392242817552e-03       5.803035645656e+03 
       1.476899540373e-03       6.122139491899e+03 
       1.564607861759e-03       6.449055343228e+03 
       1.655188274930e-03       6.782747508632e+03 
       1.748453837907e-03       7.122176402499e+03 
       1.844215413756e-03       7.466321927915e+03 
       1.942286037802e-03       7.814202000625e+03 
       2.042484344046e-03       8.164886965717e+03 
       2.144637079630e-03       8.517508699947e+03 
       2.248580800163e-03       8.871266851894e+03 
       2.354162872584e-03       9.225431066407e+03 
       2.461241922659e-03       9.579339791344e+03 
       2.569687858549e-03       9.932400264104e+03 
       2.679381586940e-03       1.028408225321e+04 
       2.790214519180e-03       1.063391646301e+04 
       2.902087945205e-03       1.098148964732e+04 
       3.014912334897e-03       1.132643719685e+04 
       3.128606610855e-03       1.166844185954e+04 
       3.243097423772e-03       1.200722714287e+04 
       3.358318451498e-03       1.234255476886e+04 
       3.474209735220e-03       1.267421495024e+04 
       3.590717060462e-03       1.300203315785e+04 
       3.707791386580e-03       1.332585725206e+04 
       3.825388325559e-03       1.364556214424e+04 
       3.943467669046e-03       1.396103775317e+04 
       4.061992961333e-03       1.427219711104e+04 
       4.180931115321e-03       1.457896888100e+04 
       4.300252068119e-03       1.488129283621e+04 
       4.419928472833e-03       1.517912468320e+04 
       4.539935423149e-03       1.547242661907e+04 
       4.660250207439e-03       1.576118076613e+04 
       4.780852089355e-03       1.604535771562e+04 
       4.901722112084e-03       1.632496335358e+04 
       5.022842923700e-03       1.660000109381e+04 
       5.144198621287e-03       1.681117503805e+04 
       5.265774611752e-03       1.707477323273e+04 
       5.387557487452e-03       1.733379573658e+04 
       5.509534914975e-03       1.758825832568e+04 
       5.631695535596e-03       1.783818860989e+04 
       5.754028876100e-03       1.808360396873e+04 
       5.876525268804e-03       1.832453570281e+04 
       5.999175779758e-03       1.856101673783e+04 
       6.121972144215e-03       1.879307666331e+04 
       6.244906708570e-03       1.902074378613e+04 
       6.367972378052e-03       1.924406118434e+04 
       6.491162569555e-03       1.946305561745e+04 
       6.614471169042e-03       1.967777466887e+04 
       6.737892493041e-03       1.988825631233e+04 
       6.861421253793e-03       2.009453426266e+04 
       6.985052527673e-03       2.029665220650e+04 
       7.108781726541e-03       2.049465066418e+04 
       7.232604571725e-03       2.068856455081e+04 
       7.356517070358e-03       2.087844261053e+04 
       7.480515493839e-03       2.106432680347e+04 
       7.604596358212e-03       2.124626455317e+04 
       7.728756406254e-03       2.142428044455e+04 
       7.852992591126e-03       2.159843317558e+04 
       7.977302061418e-03       2.176875952133e+04 
       8.101682147467e-03       2.193528438700e+04 
       8.226130348828e-03       2.209808134603e+04 
       8.350644322769e-03       2.225718197027e+04 
       8.475221873730e-03       2.241261908928e+04 
       8.599860943624e-03       2.256444200478e+04 
       8.724559602926e-03       2.271268239872e+04 
       8.849316042466e-03       2.285739199039e+04 
       8.974128565875e-03       2.299860571323e+04 
       9.098995582617e-03       2.313636867252e+04 
       9.223915601555e-03       2.327072096014e+04 
       9.348887225023e-03       2.340169644366e+04 
       9.473909143333e-03       2.352933491404e+04 
       9.598980129706e-03       2.365368385446e+04 
       9.724099035576e-03       2.377476457941e+04 
       9.849264786243e-03       2.389262997838e+04 
       9.974476376846e-03       2.400731506886e+04 
       1.009973286863e-02       2.411884913833e+04 
       1.022503338547e-02       2.422728532293e+04 
       1.035037711069e-02       2.433265071087e+04 
       1.047576328402e-02       2.443497541105e+04 
       1.060119119888e-02       2.453430637924e+04 
       1.072666019978e-02       2.463068010256e+04 
       1.085216967991e-02       2.472411728376e+04 
       1.097771907894e-02       2.481467654931e+04 
       1.110330788092e-02       2.490238073952e+04 
       1.122893561237e-02       2.498726359551e+04 
       1.135460184048e-02       2.506936600883e+04 
       1.148030617143e-02       2.514871666249e+04 
       1.160604824887e-02       2.522536025486e+04 
       1.173182775242e-02       2.529931749397e+04 
       1.185764439638e-02       2.537062508703e+04 
       1.198349792843e-02       2.543931632891e+04 
       1.210938812850e-02       2.550542889579e+04 
       1.223531480768e-02       2.556899483037e+04 
       1.236127780719e-02       2.563003286168e+04 
       1.248727699749e-02       2.568860067276e+04 
       1.261331227736e-02       2.574470596733e+04 
       1.273938357316e-02       2.579839384838e+04 
       1.286549083801e-02       2.584969752421e+04 
       1.299163405118e-02       2.589864024177e+04 
       1.311781321738e-02       2.594525787546e+04 
       1.324402836623e-02       2.598957976121e+04 
       1.337027955170e-02       2.603162372066e+04 
       1.349656685160e-02       2.607144045989e+04 
       1.362289036716e-02       2.610903525821e+04 
       1.374925022257e-02       2.614444650199e+04 
       1.387564656466e-02       2.617770891785e+04 
       1.400207956250e-02       2.620883926001e+04 
       1.412854940714e-02       2.623786921953e+04 
       1.425505631131e-02       2.626483128859e+04 
       1.438160050918e-02       2.628974626071e+04 
       1.450818225617e-02       2.631264178585e+04 
       1.463480182871e-02       2.633355235404e+04 
       1.476145952416e-02       2.635249224705e+04 
       1.488815566058e-02       2.636949594711e+04 
       1.501489057672e-02       2.638458697774e+04 
       1.514166463185e-02       2.639779332281e+04 
       1.526847820578e-02       2.640914258244e+04 
       1.539533169875e-02       2.641864691869e+04 
       1.552222553145e-02       2.642633650072e+04 
       1.564916014502e-02       2.643223527042e+04 
       1.577613600109e-02       2.643639902217e+04 
       1.590315358178e-02       2.643880250486e+04 
       1.603021338980e-02       2.643949372902e+04 
       1.615731594853e-02       2.643849594314e+04 
       1.628446180211e-02       2.643584930204e+04 
       1.641165151557e-02       2.643153854677e+04 
       1.653888567495e-02       2.642561334220e+04 
       1.666616488747e-02       2.641809921916e+04 
       1.679348978171e-02       2.640900847012e+04 
       1.692086100778e-02       2.639835794923e+04 
       1.704827923753e-02       2.638619171737e+04 
       1.717574516477e-02       2.637251399360e+04 
       1.730325950554e-02       2.635734597038e+04 
       1.743082299832e-02       2.634074084111e+04 
       1.755843640434e-02       2.632266408002e+04 
       1.768610050784e-02       2.630318972565e+04 
       1.781381611639e-02       2.628230932305e+04 
       1.794158406122e-02       2.626006168845e+04 
       1.806940519756e-02       2.623646320748e+04 
       1.819728040496e-02       2.621153544382e+04 
       1.832521058771e-02       2.618527259632e+04 
       1.845319667518e-02       2.615773269589e+04 
       1.858123962229e-02       2.612891727311e+04 
       1.870934040986e-02       2.609885690513e+04 
       1.883750004510e-02       2.606758631949e+04 
       1.896571956207e-02       2.603507874932e+04 
       1.909400002211e-02       2.600139103047e+04 
       1.922234251438e-02       2.596654135115e+04 
       1.935074815635e-02       2.593053001191e+04 
       1.947921809435e-02       2.589339948191e+04 
       1.960775350410e-02       2.585516841559e+04 
       1.973635559129e-02       2.581582087732e+04 
       1.986502559215e-02       2.577542029560e+04 
       1.999376477410e-02       2.573393525383e+04 
       2.012257443634e-02       2.569145729998e+04 
       2.025145591054e-02       2.564792486202e+04 
       2.038041056146e-02       2.560340436460e+04 
       2.050943978770e-02       2.555791490484e+04 
       2.063854502239e-02       2.551146781188e+04 
       2.076772773392e-02       2.546407032875e+04 
       2.089698942675e-02       2.541576686797e+04 
       2.102633164215e-02       2.536657019036e+04 
       2.115575595902e-02       2.531641019979e+04 
       2.128526399478e-02       2.526542384339e+04 
       2.141485740618e-02       2.521358174966e+04 
       2.154453789022e-02       2.516087990550e+04 
       2.167430718506e-02       2.510738112542e+04 
       2.180416707100e-02       2.505308998901e+04 
       2.193411937143e-02       2.499797344619e+04 
       2.206416595385e-02       2.494210702837e+04 
       2.219430873092e-02       2.488545230930e+04 
       2.232454966154e-02       2.482806569821e+04 
       2.245489075195e-02       2.476997894110e+04 
       2.258533405688e-02       2.471117033028e+04 
       2.271588168074e-02       2.465167156980e+04 
       2.284653577881e-02       2.459141867136e+04 
       2.297729855853e-02       2.453062728926e+04 
       2.310817228079e-02       2.446913674110e+04 
       2.323915926125e-02       2.440696393713e+04 
       2.337026187174e-02       2.434420057341e+04 
       2.350148254167e-02       2.428084233116e+04 
       2.363282375951e-02       2.421684251254e+04 
       2.376428807431e-02       2.415228747142e+04 
       2.389587809726e-02       2.408718202927e+04 
       2.402759650330e-02       2.402153818733e+04 
       2.415944603280e-02       2.395532562287e+04 
       2.429142949330e-02       2.388860620891e+04 
       2.442354976126e-02       2.382134903073e+04 
       2.455580978391e-02       2.375366565010e+04 
       2.468821258116e-02       2.368543728771e+04 
       2.482076124757e-02       2.361673376993e+04 
       2.495345895435e-02       2.354763772607e+04 
       2.508630895149e-02       2.347800377601e+04 
       2.521931456991e-02       2.340793391458e+04 
       2.535247922371e-02       2.333755172062e+04 
       2.548580641249e-02       2.326668648210e+04 
       2.561929972376e-02       2.319542197964e+04 
       2.575296283539e-02       2.312378383829e+04 
       2.588679951822e-02       2.305178450548e+04 
       2.602081363871e-02       2.297938920127e+04 
       2.615500916165e-02       2.290670048478e+04 
       2.628939015308e-02       2.283364126717e+04 
       2.642396078319e-02       2.276023921569e+04 
       2.655872532941e-02       2.268653407159e+04 
       2.669368817957e-02       2.261257921750e+04 
       2.682885383517e-02       2.253824070398e+04 
       2.696422691483e-02       2.246364249160e+04 
       2.709981215777e-02       2.238871284679e+04 
       2.723561442751e-02       2.231364706191e+04 
       2.737163871567e-02       2.223827332244e+04 
       2.750789014590e-02       2.216266902288e+04 
       2.764437397797e-02       2.208677715400e+04 
       2.778109561207e-02       2.201071643600e+04 
       2.791806059317e-02       2.193441402791e+04 
       2.805527461563e-02       2.185800097394e+04 
       2.819274352800e-02       2.178126020541e+04 
       2.833047333793e-02       2.170436468168e+04 
       2.846847021736e-02       2.162729658282e+04 
       2.860674050786e-02       2.155004648696e+04 
       2.874529072623e-02       2.147261283969e+04 
       2.888412757030e-02       2.139509858193e+04 
       2.902325792497e-02       2.131739039914e+04 
       2.916268886854e-02       2.123958863639e+04 
       2.930242767921e-02       2.116160229564e+04 
       2.944248184197e-02       2.108348941611e+04 
       2.958285905574e-02       2.100531963807e+04 
       2.972356724076e-02       2.092701376209e+04 
       2.986461454636e-02       2.084864384567e+04 
       3.000600935908e-02       2.077013771286e+04 
       3.014776031110e-02       2.069153175049e+04 
       3.028987628910e-02       2.061288575858e+04 
       3.043236644343e-02       2.053413213129e+04 
       3.057524019780e-02       2.045534962120e+04 
       3.071850725934e-02       2.037643481649e+04 
       3.086217762918e-02       2.029760363951e+04 
       3.100626161341e-02       2.021857642651e+04 
       3.115076983473e-02       2.013952494681e+04 
       3.129571324449e-02       2.006051098888e+04 
       3.144110313540e-02       1.998143654073e+04 
       3.158695115479e-02       1.990237298951e+04 
       3.173326931861e-02       1.982326920259e+04 
       3.188007002602e-02       1.974411960834e+04 
       3.202736607473e-02       1.966497182546e+04 
       3.217517067717e-02       1.958579106796e+04 
       3.232349747744e-02       1.950664592048e+04 
       3.247236056905e-02       1.942755889902e+04 
       3.262177451377e-02       1.934836772415e+04 
       3.277175436123e-02       1.926930833880e+04 
       3.292231566978e-02       1.919024571281e+04 
       3.307347452830e-02       1.911111031680e+04 
       3.322524757924e-02       1.903202946873e+04 
       3.337765204299e-02       1.895299777649e+04 
       3.353070574345e-02       1.887401436018e+04 
       3.368442713515e-02       1.879508988177e+04 
       3.383883533184e-02       1.871613256905e+04 
       3.399395013675e-02       1.863726101079e+04 
       3.414979207451e-02       1.855834822304e+04 
       3.430638242505e-02       1.847962578456e+04 
       3.446374325938e-02       1.840086192703e+04 
       3.462189747762e-02       1.832210606612e+04 
       3.478086884924e-02       1.824345928143e+04 
       3.494068205579e-02       1.816486817550e+04 
       3.510136273624e-02       1.808633967152e+04 
       3.526293753527e-02       1.800778867496e+04 
       3.542543415443e-02       1.792940302798e+04 
       3.558888140678e-02       1.785103397257e+04 
       3.575330927493e-02       1.777270476031e+04 
       3.591874897296e-02       1.769441889167e+04 
       3.608523301249e-02       1.761629117250e+04 
       3.625279527315e-02       1.753813145372e+04 
       3.642147107789e-02       1.746000612131e+04 
       3.659129727355e-02       1.738202509926e+04 
       3.676231231704e-02       1.730403362775e+04 
       3.693455636766e-02       1.722610063372e+04 
       3.710807138611e-02       1.714829451467e+04 
       3.728290124070e-02       1.707045455529e+04 
       3.745909182154e-02       1.699270806689e+04 
       3.763669116322e-02       1.691503036119e+04 
       3.781574957691e-02       1.683741302026e+04 
       3.799631979273e-02       1.675987944159e+04 
       3.817845711330e-02       1.668229588925e+04 
       3.836221957953e-02       1.660479376742e+04 
       3.854766814992e-02       1.652732672739e+04 
       3.873486689461e-02       1.644990809450e+04 
       3.892388320563e-02       1.637252728654e+04 
       3.911478802516e-02       1.629521608306e+04 
       3.930765609335e-02       1.621786653678e+04 
       3.950256621807e-02       1.614055587035e+04 
       3.969960156871e-02       1.606324094904e+04 
       3.989884999665e-02       1.598596047077e+04 
       4.010040438546e-02       1.590871170137e+04 
       4.030436303393e-02       1.583139923382e+04 
       4.051083007594e-02       1.575412123386e+04 
       4.071991594114e-02       1.567685517879e+04 
       4.093173786152e-02       1.559947676815e+04 
       4.114642042920e-02       1.552214634967e+04 
       4.136409621172e-02       1.544476718137e+04 
       4.158490643213e-02       1.536729565318e+04 
       4.180900172196e-02       1.528980466897e+04 
       4.203654295656e-02       1.521223312639e+04 
       4.226770218379e-02       1.513462054154e+04 
       4.250266365845e-02       1.505685090695e+04 
       4.274162499724e-02       1.497895695374e+04 
       4.298479847103e-02       1.490102797545e+04 
       4.323241245419e-02       1.482291315487e+04 
       4.348471305404e-02       1.474464182792e+04 
       4.374196594750e-02       1.466623126294e+04 
       4.400445845656e-02       1.458763275737e+04 
       4.427250190020e-02       1.450880809446e+04 
       4.454643426706e-02       1.442975485006e+04 
       4.482662326158e-02       1.435044902943e+04 
       4.511346978655e-02       1.427086584617e+04 
       4.540741193724e-02       1.419102676092e+04 
       4.570892959762e-02       1.411081245460e+04 
       4.601854974768e-02       1.403022249321e+04 
       4.633685261409e-02       1.394928950907e+04 
       4.666447882487e-02       1.386787436416e+04 
       4.700213776448e-02       1.378596680399e+04 
       4.735061737027e-02       1.370360987538e+04 
       4.771079566713e-02       1.362061143769e+04 
       4.808365440785e-02       1.353697987894e+04 
       4.847029527579e-02       1.345270190579e+04 
       4.887195921988e-02       1.336759578778e+04 
       4.929004963614e-02       1.328169444898e+04 
       4.972616029350e-02       1.319483437844e+04 
       5.018210913605e-02       1.310691579134e+04 
       5.065997939168e-02       1.301780970025e+04 
       5.116216979445e-02       1.292741540092e+04 
       5.169145620055e-02       1.283544456528e+04 
       5.225106746003e-02       1.274182033735e+04 
       5.284477910021e-02       1.264620484329e+04 
       5.347702915686e-02       1.254832545297e+04 
       5.415306126340e-02       1.244777162605e+04 
       5.487910064565e-02       1.234403384661e+04 
       5.566256845959e-02       1.223650792317e+04 
       5.651233789428e-02       1.212429006113e+04 
       5.743902957315e-02       1.200632884784e+04 
       5.845533018972e-02       1.188115144376e+04 
       5.957629042112e-02       1.174667812653e+04 
