# Matter power spectrum P(k) at redshift z=0
# for k=1.02712e-05 to 14.1174 h/Mpc,
# number of wavenumbers equal to 737
#    1:k (h/Mpc)              2:P (Mpc/h)^3        
       1.027119446758e-05       5.280738813854e+01 
       2.287352556919e-05       1.143948143995e+02 
       3.551840344195e-05       1.749544904554e+02 
       4.823839139275e-05       2.351075837840e+02 
       6.106656949153e-05       2.952086924309e+02 
       7.403681696095e-05       3.555239486130e+02 
       8.718410323864e-05       4.162810204780e+02 
       1.005447914297e-04       4.776895793704e+02 
       1.141569578964e-04       5.399517738063e+02 
       1.280607317635e-04       6.032685447708e+02 
       1.422986581297e-04       6.678439835180e+02 
       1.569160887405e-04       7.338887099416e+02 
       1.719616037481e-04       8.016227283495e+02 
       1.874874679161e-04       8.712780282174e+02 
       2.035501241322e-04       9.431010625133e+02 
       2.202107262844e-04       1.017355196172e+03 
       2.375357122973e-04       1.094323146824e+03 
       2.555974162550e-04       1.174309471890e+03 
       2.744747158408e-04       1.257643037944e+03 
       2.942537075592e-04       1.344679518177e+03 
       3.150283970591e-04       1.435803755349e+03 
       3.369013850448e-04       1.531431999714e+03 
       3.599845204041e-04       1.632013805543e+03 
       3.843994810506e-04       1.738033430937e+03 
       4.102782294748e-04       1.850010521619e+03 
       4.377632743451e-04       1.968499707817e+03 
       4.670076524584e-04       2.094088825468e+03 
       4.981745284811e-04       2.227395249614e+03 
       5.314362959173e-04       2.369059945398e+03 
       5.669730556352e-04       2.519738695567e+03 
       6.049703534471e-04       2.680090148374e+03 
       6.456160820621e-04       2.850760362641e+03 
       6.890965013899e-04       3.032363842965e+03 
       7.355914087696e-04       3.225461432188e+03 
       7.852685963886e-04       3.430535794773e+03 
       8.382778583614e-04       3.647965953449e+03 
       8.947449364309e-04       3.878002577383e+03 
       9.547658942926e-04       4.120746373225e+03 
       1.018402455849e-03       4.376131835021e+03 
       1.085678807595e-03       4.643918396969e+03 
       1.156580240969e-03       4.923690519216e+03 
       1.231053810966e-03       5.214867039990e+03 
       1.309010949027e-03       5.516719152224e+03 
       1.390331740315e-03       5.828358769783e+03 
       1.474870404424e-03       6.148868342160e+03 
       1.562461433800e-03       6.477245874627e+03 
       1.652925850799e-03       6.812451732471e+03 
       1.746077125311e-03       7.153441786159e+03 
       1.841726420192e-03       7.499190985051e+03 
       1.939686969484e-03       7.848712037733e+03 
       2.039777519180e-03       8.201070017417e+03 
       2.141824857276e-03       8.555391545493e+03 
       2.245665524344e-03       8.910871161323e+03 
       2.351146830309e-03       9.266773685673e+03 
       2.458127313975e-03       9.622433199454e+03 
       2.566476776558e-03       9.977252041908e+03 
       2.676076005773e-03       1.033069713131e+04 
       2.786816288110e-03       1.068229537784e+04 
       2.898598787354e-03       1.103162938385e+04 
       3.011333849235e-03       1.137833288583e+04 
       3.124940276487e-03       1.172208561115e+04 
       3.239344605709e-03       1.206260916802e+04 
       3.354480407312e-03       1.239966303851e+04 
       3.470287622139e-03       1.273303582159e+04 
       3.586711942587e-03       1.306255151709e+04 
       3.703704242001e-03       1.338805637440e+04 
       3.821220053219e-03       1.370942448472e+04 
       3.939219095260e-03       1.402654488197e+04 
       4.057664845906e-03       1.433932968194e+04 
       4.176524157238e-03       1.464770637198e+04 
       4.295766910803e-03       1.495161462636e+04 
       4.415365708979e-03       1.525100963652e+04 
       4.535295599149e-03       1.554585314002e+04 
       4.655533827422e-03       1.583612645167e+04 
       4.776059618865e-03       1.612180124916e+04 
       4.896853981425e-03       1.640288106855e+04 
       5.017899530971e-03       1.667937135654e+04 
       5.139180335142e-03       1.695126284675e+04 
       5.260681773898e-03       1.721857175725e+04 
       5.382390414918e-03       1.748130658980e+04 
       5.504293902166e-03       1.773948003567e+04 
       5.626380856159e-03       1.799312000210e+04 
       5.748640784616e-03       1.824224399998e+04 
       5.871064002325e-03       1.848687933973e+04 
       5.993641559200e-03       1.872706055918e+04 
       6.116365175632e-03       1.896281189535e+04 
       6.239227184302e-03       1.919416393482e+04 
       6.362220477778e-03       1.942115820320e+04 
       6.485338461250e-03       1.964381953815e+04 
       6.608575009848e-03       1.986219529921e+04 
       6.731924430064e-03       2.007632152596e+04 
       6.855381424830e-03       2.028623213573e+04 
       6.978941061878e-03       2.049196785001e+04 
       7.102598745033e-03       2.069357141972e+04 
       7.226350188143e-03       2.089107173082e+04 
       7.350191391373e-03       2.108452480296e+04 
       7.474118619627e-03       2.127396476132e+04 
       7.598128382876e-03       2.145943890294e+04 
       7.722217418228e-03       2.164097314234e+04 
       7.846382673532e-03       2.181862336658e+04 
       7.970621292405e-03       2.199242839085e+04 
       8.094930600522e-03       2.216241319752e+04 
       8.219308093053e-03       2.232863853426e+04 
       8.343751423153e-03       2.249115216755e+04 
       8.468258391385e-03       2.264998074339e+04 
       8.592826936013e-03       2.280516529399e+04 
       8.717455124068e-03       2.295674628884e+04 
       8.842141143132e-03       2.310477217903e+04 
       8.966883293763e-03       2.324927198754e+04 
       9.091679982517e-03       2.339029514643e+04 
       9.216529715505e-03       2.352788049277e+04 
       9.341431092448e-03       2.366205970471e+04 
       9.466382801177e-03       2.379287034895e+04 
       9.591383612557e-03       2.392037045023e+04 
       9.716432375778e-03       2.404457135186e+04 
       9.841528014002e-03       2.416551900379e+04 
       9.966669520330e-03       2.428326092391e+04 
       1.009185595406e-02       2.439781849683e+04 
       1.021708643720e-02       2.450924984957e+04 
       1.034236015130e-02       2.461756651651e+04 
       1.046767633438e-02       2.472282276279e+04 
       1.059303427822e-02       2.482504269171e+04 
       1.071843332574e-02       2.492428215560e+04 
       1.084387286864e-02       2.502055162123e+04 
       1.096935234512e-02       2.511389264570e+04 
       1.109487123782e-02       2.520435451209e+04 
       1.122042907189e-02       2.529195676970e+04 
       1.134602541323e-02       2.537674224405e+04 
       1.147165986674e-02       2.545874233068e+04 
       1.159733207482e-02       2.553799489898e+04 
       1.172304171591e-02       2.561452277321e+04 
       1.184878850314e-02       2.568837331053e+04 
       1.197457218307e-02       2.575955798124e+04 
       1.210039253452e-02       2.582813216652e+04 
       1.222624936749e-02       2.589411583139e+04 
       1.235214252218e-02       2.595754986065e+04 
       1.247807186799e-02       2.601845349154e+04 
       1.260403730272e-02       2.607687899852e+04 
       1.273003875172e-02       2.613283222587e+04 
       1.285607616715e-02       2.618636890327e+04 
       1.298214952733e-02       2.623749942369e+04 
       1.310825883603e-02       2.628626565514e+04 
       1.323440412194e-02       2.633270279016e+04 
       1.336058543813e-02       2.637681835247e+04 
       1.348680286149e-02       2.641866062671e+04 
       1.361305649238e-02       2.645824523347e+04 
       1.373934645409e-02       2.649561322637e+04 
       1.386567289258e-02       2.653078501326e+04 
       1.399203597605e-02       2.656378388708e+04 
       1.411843589468e-02       2.659464908001e+04 
       1.424487286036e-02       2.662339965205e+04 
       1.437134710639e-02       2.665006777762e+04 
       1.449785888734e-02       2.667466615463e+04 
       1.462440847879e-02       2.669724318460e+04 
       1.475099617724e-02       2.671781776238e+04 
       1.487762229991e-02       2.673640181391e+04 
       1.500428718470e-02       2.675303760381e+04 
       1.513099119004e-02       2.676774970232e+04 
       1.525773469485e-02       2.678055679744e+04 
       1.538451809855e-02       2.679148889014e+04 
       1.551134182095e-02       2.680056567955e+04 
       1.563820630234e-02       2.680781647518e+04 
       1.576511200347e-02       2.681325966842e+04 
       1.589205940558e-02       2.681694280548e+04 
       1.601904901050e-02       2.681884807609e+04 
       1.614608134074e-02       2.681902568523e+04 
       1.627315693952e-02       2.681750447136e+04 
       1.640027637098e-02       2.681430487741e+04 
       1.652744022024e-02       2.680944747327e+04 
       1.665464909361e-02       2.680293206031e+04 
       1.678190361872e-02       2.679484094826e+04 
       1.690920444474e-02       2.678512994063e+04 
       1.703655224258e-02       2.677386759689e+04 
       1.716394770507e-02       2.676103844902e+04 
       1.729139154727e-02       2.674672227948e+04 
       1.741888450668e-02       2.673087013202e+04 
       1.754642734350e-02       2.671355791292e+04 
       1.767402084097e-02       2.669479735204e+04 
       1.780166580563e-02       2.667458751028e+04 
       1.792936306765e-02       2.665296279412e+04 
       1.805711348117e-02       2.662993816948e+04 
       1.818491792469e-02       2.660555332983e+04 
       1.831277730137e-02       2.657982887565e+04 
       1.844069253948e-02       2.655279114233e+04 
       1.856866459279e-02       2.652439670366e+04 
       1.869669444096e-02       2.649476294652e+04 
       1.882478309003e-02       2.646385512329e+04 
       1.895293157284e-02       2.643167580850e+04 
       1.908114094952e-02       2.639830031238e+04 
       1.920941230799e-02       2.636371340305e+04 
       1.933774676445e-02       2.632791638659e+04 
       1.946614546393e-02       2.629099216836e+04 
       1.959460958084e-02       2.625289198637e+04 
       1.972314031952e-02       2.621368729392e+04 
       1.985173891484e-02       2.617337582414e+04 
       1.998040663283e-02       2.613196708835e+04 
       2.010914477126e-02       2.608949936912e+04 
       2.023795466034e-02       2.604596238113e+04 
       2.036683766336e-02       2.600142267387e+04 
       2.049579517741e-02       2.595584464955e+04 
       2.062482863407e-02       2.590929262104e+04 
       2.075393950016e-02       2.586176271047e+04 
       2.088312927853e-02       2.581326600725e+04 
       2.101239950879e-02       2.576384824496e+04 
       2.114175176820e-02       2.571349141915e+04 
       2.127118767243e-02       2.566221668126e+04 
       2.140070887650e-02       2.561007964557e+04 
       2.153031707560e-02       2.555704539436e+04 
       2.166001400609e-02       2.550320568083e+04 
       2.178980144638e-02       2.544852940735e+04 
       2.191968121795e-02       2.539299113264e+04 
       2.204965518636e-02       2.533664363879e+04 
       2.217972526225e-02       2.527955440711e+04 
       2.230989340249e-02       2.522168307116e+04 
       2.244016161123e-02       2.516306016622e+04 
       2.257053194106e-02       2.510369896527e+04 
       2.270100649419e-02       2.504358596086e+04 
       2.283158742367e-02       2.498279371079e+04 
       2.296227693466e-02       2.492129212166e+04 
       2.309307728568e-02       2.485912656987e+04 
       2.322399079001e-02       2.479628657019e+04 
       2.335501981700e-02       2.473281109370e+04 
       2.348616679357e-02       2.466870832323e+04 
       2.361743420559e-02       2.460397351828e+04 
       2.374882459947e-02       2.453866408128e+04 
       2.388034058371e-02       2.447273849262e+04 
       2.401198483046e-02       2.440619534942e+04 
       2.414376007727e-02       2.433917831383e+04 
       2.427566912876e-02       2.427154040533e+04 
       2.440771485840e-02       2.420347065942e+04 
       2.453990021037e-02       2.413475070616e+04 
       2.467222820146e-02       2.406560074534e+04 
       2.480470192299e-02       2.399596495587e+04 
       2.493732454289e-02       2.392582493070e+04 
       2.507009930777e-02       2.385520994957e+04 
       2.520302954509e-02       2.378413636731e+04 
       2.533611866538e-02       2.371266772766e+04 
       2.546937016461e-02       2.364070252848e+04 
       2.560278762653e-02       2.356835281796e+04 
       2.573637472518e-02       2.349560810071e+04 
       2.587013522745e-02       2.342244813417e+04 
       2.600407299575e-02       2.334898219804e+04 
       2.613819199072e-02       2.327504552717e+04 
       2.627249627412e-02       2.320079089262e+04 
       2.640699001177e-02       2.312617040120e+04 
       2.654167747659e-02       2.305126273381e+04 
       2.667656305178e-02       2.297598377963e+04 
       2.681165123410e-02       2.290044802419e+04 
       2.694694663726e-02       2.282456685734e+04 
       2.708245399548e-02       2.274840176921e+04 
       2.721817816711e-02       2.267192527065e+04 
       2.735412413846e-02       2.259526502651e+04 
       2.749029702771e-02       2.251829714512e+04 
       2.762670208905e-02       2.244103964212e+04 
       2.776334471685e-02       2.236361222163e+04 
       2.790023045015e-02       2.228591995930e+04 
       2.803736497722e-02       2.220795394564e+04 
       2.817475414027e-02       2.212986850356e+04 
       2.831240394049e-02       2.205151947443e+04 
       2.845032054314e-02       2.197298271795e+04 
       2.858851028291e-02       2.189432222150e+04 
       2.872697966953e-02       2.181533944851e+04 
       2.886573539351e-02       2.173633803072e+04 
       2.900478433225e-02       2.165720330114e+04 
       2.914413355627e-02       2.157781702525e+04 
       2.928379033580e-02       2.149830089910e+04 
       2.942376214757e-02       2.141864434540e+04 
       2.956405668200e-02       2.133888190202e+04 
       2.970468185055e-02       2.125895482222e+04 
       2.984564579350e-02       2.117896272935e+04 
       2.998695688804e-02       2.109886790442e+04 
       3.012862375669e-02       2.101863343749e+04 
       3.027065527617e-02       2.093834355115e+04 
       3.041306058652e-02       2.085795783138e+04 
       3.055584910082e-02       2.077750690658e+04 
       3.069903051521e-02       2.069697148408e+04 
       3.084261481941e-02       2.061636314503e+04 
       3.098661230778e-02       2.053570681352e+04 
       3.113103359084e-02       2.045498454680e+04 
       3.127588960735e-02       2.037424211293e+04 
       3.142119163698e-02       2.029341104695e+04 
       3.156695131359e-02       2.021258868164e+04 
       3.171318063912e-02       2.013165530780e+04 
       3.185989199826e-02       2.005079521980e+04 
       3.200709817372e-02       1.996986784103e+04 
       3.215481236237e-02       1.988893014061e+04 
       3.230304819213e-02       1.980797138420e+04 
       3.245181973982e-02       1.972701745798e+04 
       3.260114154978e-02       1.964604073093e+04 
       3.275102865363e-02       1.956509498056e+04 
       3.290149659095e-02       1.948409449559e+04 
       3.305256143116e-02       1.940321346771e+04 
       3.320423979646e-02       1.932229267343e+04 
       3.335654888618e-02       1.924132755288e+04 
       3.350950650233e-02       1.916047741370e+04 
       3.366313107663e-02       1.907954574318e+04 
       3.381744169911e-02       1.899870894377e+04 
       3.397245814826e-02       1.891790477099e+04 
       3.412820092295e-02       1.883701591096e+04 
       3.428469127623e-02       1.875632028601e+04 
       3.444195125110e-02       1.867562655646e+04 
       3.460000371842e-02       1.859487894778e+04 
       3.475887241711e-02       1.851420066472e+04 
       3.491858199679e-02       1.843364158976e+04 
       3.507915806312e-02       1.835304503907e+04 
       3.524062722585e-02       1.827249463055e+04 
       3.540301715004e-02       1.819199851683e+04 
       3.556635661052e-02       1.811158505226e+04 
       3.573067554983e-02       1.803118087693e+04 
       3.589600514010e-02       1.795079927434e+04 
       3.606237784889e-02       1.787053497921e+04 
       3.622982750960e-02       1.779022641385e+04 
       3.639838939664e-02       1.771001600100e+04 
       3.656810030582e-02       1.762986962170e+04 
       3.673899864039e-02       1.754976105576e+04 
       3.691112450314e-02       1.746965722287e+04 
       3.708451979528e-02       1.738959031703e+04 
       3.725922832244e-02       1.730953153890e+04 
       3.743529590855e-02       1.722958104098e+04 
       3.761277051837e-02       1.714960018372e+04 
       3.779170238928e-02       1.706972488744e+04 
       3.797214417338e-02       1.698983555715e+04 
       3.815415109069e-02       1.690998628049e+04 
       3.833778109465e-02       1.683012908329e+04 
       3.852309505098e-02       1.675033880342e+04 
       3.871015693138e-02       1.667051702026e+04 
       3.889903402330e-02       1.659074257296e+04 
       3.908979715766e-02       1.651093858853e+04 
       3.928252095623e-02       1.643121605756e+04 
       3.947728410068e-02       1.635137426245e+04 
       3.967416962576e-02       1.627163274632e+04 
       3.987326523905e-02       1.619178454029e+04 
       4.007466367031e-02       1.611200824427e+04 
       4.027846305367e-02       1.603211292228e+04 
       4.048476734646e-02       1.595219680290e+04 
       4.069368678882e-02       1.587217036734e+04 
       4.090533840898e-02       1.579222622695e+04 
       4.111984657973e-02       1.571217761367e+04 
       4.133734363213e-02       1.563203454685e+04 
       4.155797053391e-02       1.555177831531e+04 
       4.178187764044e-02       1.547141153756e+04 
       4.200922552795e-02       1.539095965437e+04 
       4.224018591969e-02       1.531043350174e+04 
       4.247494271761e-02       1.522967777226e+04 
       4.271369315411e-02       1.514884872585e+04 
       4.295664908073e-02       1.506773251178e+04 
       4.320403841335e-02       1.498650565874e+04 
       4.345610675695e-02       1.490505794427e+04 
       4.371311923686e-02       1.482337366269e+04 
       4.397536256799e-02       1.474143056616e+04 
       4.424314739963e-02       1.465922706758e+04 
       4.451681097979e-02       1.457668601092e+04 
       4.479672019174e-02       1.449387454513e+04 
       4.508327502528e-02       1.441066780926e+04 
       4.537691255777e-02       1.432708487425e+04 
       4.567811153489e-02       1.424303453981e+04 
       4.598739765982e-02       1.415855373706e+04 
       4.630534972230e-02       1.407351317428e+04 
       4.663260672780e-02       1.398795502627e+04 
       4.696987622202e-02       1.390178308560e+04 
       4.731794405079e-02       1.381494306625e+04 
       4.767768585066e-02       1.372735898042e+04 
       4.805008063595e-02       1.363897449648e+04 
       4.843622693671e-02       1.354966902040e+04 
       4.883736205463e-02       1.345948043547e+04 
       4.925488514768e-02       1.336815151518e+04 
       4.969038503646e-02       1.327564241353e+04 
       5.014567385873e-02       1.318181946073e+04 
       5.062282799464e-02       1.308646999893e+04 
       5.112423806057e-02       1.298955442410e+04 
       5.165267023990e-02       1.289063927878e+04 
       5.221134179858e-02       1.278965262608e+04 
       5.280401432486e-02       1.268619500877e+04 
       5.343510901090e-02       1.257989985743e+04 
       5.410984906952e-02       1.247032221583e+04 
       5.483443492509e-02       1.235683149337e+04 
       5.561625762972e-02       1.223871540080e+04 
       5.646415399369e-02       1.211496205104e+04 
       5.738870114008e-02       1.198437793656e+04 
       5.840253480975e-02       1.184527315909e+04 
       5.952064823513e-02       1.169543717834e+04 
