# Matter power spectrum P(k) at redshift z=0
# for k=1.02712e-05 to 14.0815 h/Mpc,
# number of wavenumbers equal to 736
#    1:k (h/Mpc)              2:P (Mpc/h)^3        
       1.027122059947e-05       5.281173691832e+01 
       2.288020640384e-05       1.144362031724e+02 
       3.553179251169e-05       1.750321037051e+02 
       4.825859396144e-05       2.352213425006e+02 
       6.109374380102e-05       2.953589428739e+02 
       7.407117622743e-05       3.557113604120e+02 
       8.722591842926e-05       4.165065800577e+02 
       1.005943948635e-04       4.779545748599e+02 
       1.142147477272e-04       5.402578032562e+02 
       1.281271774162e-04       6.036175250936e+02 
       1.423743067758e-04       6.682381778233e+02 
       1.570015729103e-04       7.343307490516e+02 
       1.720576501914e-04       8.021156393842e+02 
       1.875949078318e-04       8.718252750758e+02 
       2.036699048942e-04       9.437065841747e+02 
       2.203439247937e-04       1.018023455448e+03 
       2.376835500814e-04       1.095059184151e+03 
       2.557612764169e-04       1.175118958679e+03 
       2.746561619231e-04       1.258532350760e+03 
       2.944545043243e-04       1.345655789621e+03 
       3.152505330930e-04       1.436874958361e+03 
       3.371470969501e-04       1.532607013674e+03 
       3.602563181520e-04       1.633302476427e+03 
       3.847001737975e-04       1.739446655822e+03 
       4.106109508041e-04       1.851560263842e+03 
       4.381315054701e-04       1.970199060835e+03 
       4.674152414144e-04       2.095951978047e+03 
       4.986257027812e-04       2.229437460609e+03 
       5.319356655883e-04       2.371297427565e+03 
       5.675256030878e-04       2.522188447759e+03 
       6.055814063997e-04       2.682769684685e+03 
       6.462912658995e-04       2.853687352016e+03 
       6.898416680991e-04       3.035555637905e+03 
       7.364125410986e-04       3.228934509571e+03 
       7.861716882043e-04       3.434305073048e+03 
       8.392687751924e-04       3.652044097648e+03 
       8.958292635317e-04       3.882399251759e+03 
       9.559487826227e-04       4.125467604325e+03 
       1.019688478392e-03       4.381179426396e+03 
       1.087071838756e-03       4.649289619978e+03 
       1.158083370014e-03       4.929377992421e+03 
       1.232669296779e-03       5.220858862302e+03 
       1.310740218513e-03       5.522999514604e+03 
       1.392175427614e-03       5.834905346437e+03 
       1.476828423815e-03       6.155662188560e+03 
       1.564533076435e-03       6.484264101142e+03 
       1.655109894552e-03       6.819671203451e+03 
       1.748371947792e-03       7.160840173927e+03 
       1.844130106886e-03       7.506747762717e+03 
       1.942197411375e-03       7.856409268464e+03 
       2.042392496592e-03       8.208893011615e+03 
       2.144542108732e-03       8.563329365982e+03 
       2.248482800727e-03       8.918916897885e+03 
       2.354061935611e-03       9.274924477352e+03 
       2.461138134428e-03       9.630690075226e+03 
       2.569581300136e-03       9.985620310429e+03 
       2.679272333998e-03       1.033918501153e+04 
       2.790102641916e-03       1.069091410681e+04 
       2.901973508494e-03       1.104039394746e+04 
       3.014795398489e-03       1.138725930229e+04 
       3.128487229649e-03       1.173119216932e+04 
       3.242975648117e-03       1.207191494372e+04 
       3.358194327520e-03       1.240918819447e+04 
       3.474083305139e-03       1.274280114140e+04 
       3.590588362913e-03       1.307257801263e+04 
       3.707660456911e-03       1.339836540668e+04 
       3.825255196121e-03       1.372003692129e+04 
       3.943332369454e-03       1.403748107559e+04 
       4.061855518717e-03       1.435060945373e+04 
       4.180791554548e-03       1.465934936486e+04 
       4.300110412002e-03       1.496363915150e+04 
       4.419784742316e-03       1.526343312284e+04 
       4.539789637481e-03       1.555869210429e+04 
       4.660102384327e-03       1.584939676016e+04 
       4.780702245105e-03       1.613551627087e+04 
       4.901570261725e-03       1.641705577997e+04 
       5.022689081100e-03       1.669401681555e+04 
       5.144042799256e-03       1.696639088742e+04 
       5.265616822135e-03       1.723419147947e+04 
       5.387397741212e-03       1.749742646552e+04 
       5.509373222271e-03       1.775610924564e+04 
       5.631531905849e-03       1.801026463702e+04 
       5.753863318057e-03       1.825990957216e+04 
       5.876357790592e-03       1.850507158162e+04 
       5.999006388937e-03       1.874578247353e+04 
       6.121800847823e-03       1.898207015314e+04 
       6.244733513164e-03       1.921396097521e+04 
       6.367797289747e-03       1.944149771456e+04 
       6.490985594058e-03       1.966470451996e+04 
       6.614292311683e-03       1.988362936431e+04 
       6.737711758802e-03       2.009830811114e+04 
       6.861238647333e-03       2.030877383840e+04 
       6.984868053352e-03       2.051506931056e+04 
       7.108595388444e-03       2.071723413754e+04 
       7.232416373678e-03       2.091530227080e+04 
       7.356327015947e-03       2.110932088452e+04 
       7.480323586429e-03       2.129933197105e+04 
       7.604402600960e-03       2.148538168645e+04 
       7.728560802123e-03       2.166749256733e+04 
       7.852795142898e-03       2.184572260197e+04 
       7.977102771706e-03       2.202010699962e+04 
       8.101481018726e-03       2.219066912489e+04 
       8.225927383364e-03       2.235748165085e+04 
       8.350439522750e-03       2.252057413534e+04 
       8.475015241192e-03       2.267997831590e+04 
       8.599652480481e-03       2.283574198919e+04 
       8.724349310975e-03       2.298789509655e+04 
       8.849103923397e-03       2.313648864235e+04 
       8.973914621273e-03       2.328155616741e+04 
       9.098779813970e-03       2.342314189229e+04 
       9.223698010261e-03       2.356128501377e+04 
       9.348667812391e-03       2.369601845418e+04 
       9.473687910591e-03       2.382738181387e+04 
       9.598757078002e-03       2.395542154808e+04 
       9.723874165985e-03       2.408015934124e+04 
       9.849038099769e-03       2.420164749019e+04 
       9.974247874425e-03       2.431992137789e+04 
       1.009950255113e-02       2.443500968108e+04 
       1.022480125371e-02       2.454696611907e+04 
       1.035014316542e-02       2.465581750666e+04 
       1.047552752594e-02       2.476159447088e+04 
       1.060095362863e-02       2.486434408662e+04 
       1.072642081795e-02       2.496410233016e+04 
       1.085192848705e-02       2.506089002924e+04 
       1.097747607554e-02       2.515476623097e+04 
       1.110306306742e-02       2.524575324142e+04 
       1.122868898918e-02       2.533388402348e+04 
       1.135435340797e-02       2.541920080469e+04 
       1.148005592992e-02       2.550173011592e+04 
       1.160579619863e-02       2.558151584227e+04 
       1.173157389371e-02       2.565857963707e+04 
       1.185738872939e-02       2.573295655167e+04 
       1.198324045334e-02       2.580467574635e+04 
       1.210912884544e-02       2.587379000677e+04 
       1.223505371675e-02       2.594030494182e+04 
       1.236101490846e-02       2.600425215987e+04 
       1.248701229098e-02       2.606569348237e+04 
       1.261304576309e-02       2.612463120971e+04 
       1.273911525109e-02       2.618110057912e+04 
       1.286522070809e-02       2.623514819940e+04 
       1.299136211330e-02       2.628679704084e+04 
       1.311753947143e-02       2.633605905930e+04 
       1.324375281206e-02       2.638298697574e+04 
       1.337000218914e-02       2.642758944880e+04 
       1.349628768044e-02       2.646991892323e+04 
       1.362260938715e-02       2.650997909204e+04 
       1.374896743347e-02       2.654780629067e+04 
       1.387536196616e-02       2.658343765254e+04 
       1.400179315429e-02       2.661688580760e+04 
       1.412826118888e-02       2.664818698719e+04 
       1.425476628262e-02       2.667736907430e+04 
       1.438130866968e-02       2.670445328658e+04 
       1.450788860542e-02       2.672947051412e+04 
       1.463450636627e-02       2.675245211360e+04 
       1.476116224954e-02       2.677341320860e+04 
       1.488785657328e-02       2.679238752023e+04 
       1.501458967621e-02       2.680939914943e+04 
       1.514136191758e-02       2.682447612900e+04 
       1.526817367716e-02       2.683764553759e+04 
       1.539502535517e-02       2.684892142483e+04 
       1.552191737228e-02       2.685832880957e+04 
       1.564885016960e-02       2.686589747353e+04 
       1.577582420872e-02       2.687168025039e+04 
       1.590283997175e-02       2.687565652564e+04 
       1.602989796136e-02       2.687786197836e+04 
       1.615699870092e-02       2.687833239041e+04 
       1.628414273452e-02       2.687709859794e+04 
       1.641133062718e-02       2.687416930727e+04 
       1.653856296490e-02       2.686955838809e+04 
       1.666584035488e-02       2.686331438172e+04 
       1.679316342567e-02       2.685545645582e+04 
       1.692053282735e-02       2.684597123471e+04 
       1.704794923173e-02       2.683493132643e+04 
       1.717541333261e-02       2.682233133689e+04 
       1.730292584598e-02       2.680819556482e+04 
       1.743048751031e-02       2.679258350264e+04 
       1.755809908678e-02       2.677544288210e+04 
       1.768576135960e-02       2.675686308702e+04 
       1.781347513633e-02       2.673683298843e+04 
       1.794124124815e-02       2.671539078444e+04 
       1.806906055026e-02       2.669256425475e+04 
       1.819693392217e-02       2.666836275393e+04 
       1.832486226815e-02       2.664276902286e+04 
       1.845284651753e-02       2.661586853773e+04 
       1.858088762518e-02       2.658764654756e+04 
       1.870898657191e-02       2.655814237697e+04 
       1.883714436488e-02       2.652738529077e+04 
       1.896536203811e-02       2.649534914341e+04 
       1.909364065291e-02       2.646209449430e+04 
       1.922198129840e-02       2.642763628896e+04 
       1.935038509202e-02       2.639198297210e+04 
       1.947885318004e-02       2.635517044239e+04 
       1.960738673815e-02       2.631720852559e+04 
       1.973598697199e-02       2.627807648322e+04 
       1.986465511777e-02       2.623789771594e+04 
       1.999339244285e-02       2.619657739082e+04 
       2.012220024640e-02       2.615421992019e+04 
       2.025107986002e-02       2.611078141239e+04 
       2.038003264845e-02       2.606629092083e+04 
       2.050906001023e-02       2.602080236179e+04 
       2.063816337845e-02       2.597432735270e+04 
       2.076734422145e-02       2.592685255722e+04 
       2.089660404364e-02       2.587844600775e+04 
       2.102594438623e-02       2.582909614690e+04 
       2.115536682809e-02       2.577874697200e+04 
       2.128487298656e-02       2.572755225406e+04 
       2.141446451836e-02       2.567542781008e+04 
       2.154414312042e-02       2.562242176824e+04 
       2.167391053085e-02       2.556858927405e+04 
       2.180376852990e-02       2.551390794576e+04 
       2.193371894088e-02       2.545840815560e+04 
       2.206376363125e-02       2.540206903163e+04 
       2.219390451360e-02       2.534492578872e+04 
       2.232414354677e-02       2.528701619590e+04 
       2.245448273693e-02       2.522837311513e+04 
       2.258492413875e-02       2.516897083302e+04 
       2.271546985657e-02       2.510886387990e+04 
       2.284612204560e-02       2.504795719602e+04 
       2.297688291322e-02       2.498646585761e+04 
       2.310775472023e-02       2.492422856125e+04 
       2.323873978223e-02       2.486130855023e+04 
       2.336984047097e-02       2.479775967751e+04 
       2.350105921578e-02       2.473357820648e+04 
       2.363239850506e-02       2.466873324863e+04 
       2.376386088777e-02       2.460330154809e+04 
       2.389544897500e-02       2.453730902772e+04 
       2.402716544164e-02       2.447071166467e+04 
       2.415901302795e-02       2.440356452098e+04 
       2.429099454139e-02       2.433586578701e+04 
       2.442311285831e-02       2.426761114562e+04 
       2.455537092586e-02       2.419883680325e+04 
       2.468777176386e-02       2.412954350782e+04 
       2.482031846676e-02       2.405975396633e+04 
       2.495301420566e-02       2.398949647550e+04 
       2.508586223046e-02       2.391876749335e+04 
       2.521886587197e-02       2.384753763175e+04 
       2.535202854418e-02       2.377594735356e+04 
       2.548535374657e-02       2.370389269739e+04 
       2.561884506654e-02       2.363138802202e+04 
       2.575250618185e-02       2.355849984788e+04 
       2.588634086321e-02       2.348525607957e+04 
       2.602035297693e-02       2.341157334065e+04 
       2.615454648771e-02       2.333751162075e+04 
       2.628892546144e-02       2.326310608590e+04 
       2.642349406817e-02       2.318834138360e+04 
       2.655825658521e-02       2.311324106639e+04 
       2.669321740021e-02       2.303787709989e+04 
       2.682838101457e-02       2.296204766164e+04 
       2.696375204671e-02       2.288605361611e+04 
       2.709933523573e-02       2.280965174835e+04 
       2.723513544497e-02       2.273309958220e+04 
       2.737115766589e-02       2.265619941771e+04 
       2.750740702196e-02       2.257907212954e+04 
       2.764388877281e-02       2.250160984191e+04 
       2.778060831840e-02       2.242400310468e+04 
       2.791757120355e-02       2.234602266325e+04 
       2.805478312243e-02       2.226805174609e+04 
       2.819224992337e-02       2.218966153162e+04 
       2.832997761384e-02       2.211117107974e+04 
       2.846797236555e-02       2.203239845417e+04 
       2.860624051987e-02       2.195346472686e+04 
       2.874478859339e-02       2.187438612410e+04 
       2.888362328368e-02       2.179508910529e+04 
       2.902275147544e-02       2.171565252812e+04 
       2.916218024669e-02       2.163609827639e+04 
       2.930191687541e-02       2.155634413980e+04 
       2.944196884632e-02       2.147648379219e+04 
       2.958234385808e-02       2.139648106220e+04 
       2.972304983063e-02       2.131637608311e+04 
       2.986409491305e-02       2.123616825051e+04 
       3.000548749157e-02       2.115582220680e+04 
       3.014723619807e-02       2.107535696992e+04 
       3.028934991890e-02       2.099480686176e+04 
       3.043183780411e-02       2.091420492266e+04 
       3.057470927706e-02       2.083355686160e+04 
       3.071797404455e-02       2.075279109988e+04 
       3.086164210733e-02       2.067189982796e+04 
       3.100572377114e-02       2.059095903879e+04 
       3.115022965828e-02       2.051005684744e+04 
       3.129517071970e-02       2.042902838192e+04 
       3.144055824771e-02       2.034798117339e+04 
       3.158640388921e-02       2.026688910815e+04 
       3.173271965971e-02       2.018573841857e+04 
       3.187951795790e-02       2.010463916591e+04 
       3.202681158102e-02       2.002341714622e+04 
       3.217461374103e-02       1.994224431633e+04 
       3.232293808148e-02       1.986103817712e+04 
       3.247179869537e-02       1.977982150855e+04 
       3.262121014391e-02       1.969857488715e+04 
       3.277118747617e-02       1.961742089280e+04 
       3.292174624989e-02       1.953613032722e+04 
       3.307290255332e-02       1.945498683791e+04 
       3.322467302829e-02       1.937383364627e+04 
       3.337707489450e-02       1.929264517312e+04 
       3.353012597516e-02       1.921142780346e+04 
       3.368384472407e-02       1.913036128536e+04 
       3.383825025422e-02       1.904915923103e+04 
       3.399336236805e-02       1.896810695388e+04 
       3.414920158936e-02       1.888704977862e+04 
       3.430578919722e-02       1.880604162057e+04 
       3.446314726175e-02       1.872507182969e+04 
       3.462129868212e-02       1.864410080175e+04 
       3.478026722683e-02       1.856318661469e+04 
       3.494007757638e-02       1.848223706596e+04 
       3.510075536870e-02       1.840150416497e+04 
       3.526232724732e-02       1.832058796510e+04 
       3.542482091262e-02       1.823990534102e+04 
       3.558826517643e-02       1.815923561093e+04 
       3.575269002006e-02       1.807854314309e+04 
       3.591812665624e-02       1.799793945048e+04 
       3.608460759515e-02       1.791737416727e+04 
       3.625216671493e-02       1.783685497439e+04 
       3.642083933696e-02       1.775631105120e+04 
       3.659066230643e-02       1.767589944402e+04 
       3.676167407848e-02       1.759547548878e+04 
       3.693391481059e-02       1.751515578613e+04 
       3.710742646151e-02       1.743474414988e+04 
       3.728225289753e-02       1.735453002436e+04 
       3.745844000658e-02       1.727426569992e+04 
       3.763603582096e-02       1.719407746653e+04 
       3.781509064945e-02       1.711393493401e+04 
       3.799565721960e-02       1.703379599151e+04 
       3.817779083132e-02       1.695365286045e+04 
       3.836154952266e-02       1.687356262931e+04 
       3.854699424906e-02       1.679348565966e+04 
       3.873418907742e-02       1.671340767980e+04 
       3.892320139634e-02       1.663336658237e+04 
       3.911410214432e-02       1.655338975689e+04 
       3.930696605759e-02       1.647330843630e+04 
       3.950187193988e-02       1.639327539579e+04 
       3.969890295609e-02       1.631314412916e+04 
       3.989814695286e-02       1.623311479031e+04 
       4.009969680863e-02       1.615304274141e+04 
       4.030365081674e-02       1.607291222765e+04 
       4.051011310519e-02       1.599274389014e+04 
       4.071919409731e-02       1.591255619041e+04 
       4.093101101832e-02       1.583223924858e+04 
       4.114568845298e-02       1.575193825308e+04 
       4.136335896094e-02       1.567151420852e+04 
       4.158416375670e-02       1.559101980604e+04 
       4.180825346252e-02       1.551043336438e+04 
       4.203578894371e-02       1.542974126716e+04 
       4.226694223721e-02       1.534892487478e+04 
       4.250189758595e-02       1.526794033666e+04 
       4.274085259366e-02       1.518678044964e+04 
       4.298401951705e-02       1.510548750712e+04 
       4.323162671498e-02       1.502406904342e+04 
       4.348392027776e-02       1.494235435561e+04 
       4.374116586360e-02       1.486040623058e+04 
       4.400365077387e-02       1.477824887877e+04 
       4.427168630476e-02       1.469576995497e+04 
       4.454561041967e-02       1.461302728980e+04 
       4.482579079503e-02       1.452991730050e+04 
       4.511262830241e-02       1.444647878202e+04 
       4.540656100225e-02       1.436267040533e+04 
       4.570806873949e-02       1.427843368869e+04 
       4.601767845028e-02       1.419365269301e+04 
       4.633597031186e-02       1.410844940805e+04 
       4.666358489637e-02       1.402263859293e+04 
       4.700123152482e-02       1.393623411279e+04 
       4.734969806228e-02       1.384917851077e+04 
       4.770986245098e-02       1.376135914868e+04 
       4.808270634878e-02       1.367278095355e+04 
       4.846933132951e-02       1.358330997057e+04 
       4.887097821528e-02       1.349286134290e+04 
       4.928905025447e-02       1.340133181335e+04 
       4.972514104335e-02       1.330863982751e+04 
       5.018106832308e-02       1.321463016040e+04 
       5.065891508188e-02       1.311910936321e+04 
       5.116107976923e-02       1.302192854064e+04 
       5.169033790176e-02       1.292289462200e+04 
       5.224991792221e-02       1.282173212224e+04 
       5.284359486715e-02       1.271809158963e+04 
       5.347580617859e-02       1.261166055109e+04 
       5.415179476923e-02       1.250192049525e+04 
       5.487778498872e-02       1.238827291581e+04 
       5.566119692877e-02       1.227002490697e+04 
       5.651090249186e-02       1.214612073237e+04 
       5.743752076325e-02       1.201535851346e+04 
       5.845373663676e-02       1.187608702327e+04 
       5.957459876600e-02       1.172605131830e+04 
