# Matter power spectrum P(k) at redshift z=0
# for k=1.0274e-05 to 14.0817 h/Mpc,
# number of wavenumbers equal to 736
#    1:k (h/Mpc)              2:P (Mpc/h)^3        
       1.027404210298e-05       5.515504075284e+01 
       2.288320984717e-05       1.190198154499e+02 
       3.553498657699e-05       1.816354217034e+02 
       4.826198878475e-05       2.437174844870e+02 
       6.109735106795e-05       3.056633345554e+02 
       7.407500929027e-05       3.677644629783e+02 
       8.722999244711e-05       4.302659141496e+02 
       1.005987269674e-04       4.933904004877e+02 
       1.142193572127e-04       5.573505480881e+02 
       1.281320859662e-04       6.223561506950e+02 
       1.423795387162e-04       6.886191038655e+02 
       1.570071555031e-04       7.563571391035e+02 
       1.720636139676e-04       8.257969322007e+02 
       1.876012869688e-04       8.971768801547e+02 
       2.036767376417e-04       9.707497174377e+02 
       2.203512539515e-04       1.046785065037e+03 
       2.376914235323e-04       1.125571961075e+03 
       2.557697477175e-04       1.207421412652e+03 
       2.746652909520e-04       1.292668931484e+03 
       2.944643579864e-04       1.381677053337e+03 
       3.152611860734e-04       1.474837768738e+03 
       3.371586325063e-04       1.572574750692e+03 
       3.602688289253e-04       1.675345273921e+03 
       3.847137626143e-04       1.783641589506e+03 
       4.106257314273e-04       1.897991562896e+03 
       4.381476032424e-04       2.018958219279e+03 
       4.674327937222e-04       2.147137830660e+03 
       4.986448592449e-04       2.283156110197e+03 
       5.319565878721e-04       2.427662051111e+03 
       5.675484642057e-04       2.581318901562e+03 
       6.056063893932e-04       2.744791873909e+03 
       6.463185617755e-04       2.918732364580e+03 
       6.898714729482e-04       3.103758531726e+03 
       7.364450523790e-04       3.300432818358e+03 
       7.862071002607e-04       3.509236991441e+03 
       8.393072741912e-04       3.730546368813e+03 
       8.958710221081e-04       3.964604823550e+03 
       9.559939546338e-04       4.211503141537e+03 
       1.019737194224e-03       4.471162797031e+03 
       1.087124201626e-03       4.743327447671e+03 
       1.158139453616e-03       5.027563438312e+03 
       1.232729144483e-03       5.323269758231e+03 
       1.310803844125e-03       5.629696815397e+03 
       1.392242817552e-03       5.945931457576e+03 
       1.476899540373e-03       6.271041879489e+03 
       1.564607861759e-03       6.604003755146e+03 
       1.655188274930e-03       6.943759152116e+03 
       1.748453837907e-03       7.289247397047e+03 
       1.844215413756e-03       7.639428816961e+03 
       1.942286037802e-03       7.993303497232e+03 
       2.042484344046e-03       8.349925839181e+03 
       2.144637079630e-03       8.708413692169e+03 
       2.248580800163e-03       9.067954575251e+03 
       2.354162872584e-03       9.427807811976e+03 
       2.461241922659e-03       9.787303192670e+03 
       2.569687858549e-03       1.014584086222e+04 
       2.679381586940e-03       1.050288484524e+04 
       2.790214519180e-03       1.085796135257e+04 
       2.902087945205e-03       1.121065373903e+04 
       3.014912334897e-03       1.156059489565e+04 
       3.128606610855e-03       1.190746591375e+04 
       3.243097423772e-03       1.225098932799e+04 
       3.358318451498e-03       1.259092650321e+04 
       3.474209735220e-03       1.292706770315e+04 
       3.590717060462e-03       1.325923898749e+04 
       3.707791386580e-03       1.358728908087e+04 
       3.825388325559e-03       1.391109412576e+04 
       3.943467669046e-03       1.423054540289e+04 
       4.061992961333e-03       1.454555759774e+04 
       4.180931115321e-03       1.485606117432e+04 
       4.300252068119e-03       1.516199777234e+04 
       4.419928472833e-03       1.546332512651e+04 
       4.539935423149e-03       1.576000744999e+04 
       4.660250207439e-03       1.605202912419e+04 
       4.780852089355e-03       1.633936266382e+04 
       4.901722112084e-03       1.662201641230e+04 
       5.022842923700e-03       1.689999607910e+04 
       5.144198621287e-03       1.711300235746e+04 
       5.265774611752e-03       1.737930562044e+04 
       5.387557487452e-03       1.764093345315e+04 
       5.509534914975e-03       1.789790375688e+04 
       5.631695535596e-03       1.815024638911e+04 
       5.754028876100e-03       1.839798071507e+04 
       5.876525268804e-03       1.864114018722e+04 
       5.999175779758e-03       1.887975983561e+04 
       6.121972144215e-03       1.911387122567e+04 
       6.244906708570e-03       1.934350455257e+04 
       6.367972378052e-03       1.956870497027e+04 
       6.491162569555e-03       1.978950097680e+04 
       6.614471169042e-03       2.000594218729e+04 
       6.737892493041e-03       2.021806838898e+04 
       6.861421253793e-03       2.042591498780e+04 
       6.985052527673e-03       2.062952747696e+04 
       7.108781726541e-03       2.082894808259e+04 
       7.232604571725e-03       2.102421328915e+04 
       7.356517070358e-03       2.121537359172e+04 
       7.480515493839e-03       2.140247254830e+04 
       7.604596358212e-03       2.158555922766e+04 
       7.728756406254e-03       2.176465945733e+04 
       7.852992591126e-03       2.193983368614e+04 
       7.977302061418e-03       2.211112005509e+04 
       8.101682147467e-03       2.227854461801e+04 
       8.226130348828e-03       2.244218282771e+04 
       8.350644322769e-03       2.260206744452e+04 
       8.475221873730e-03       2.275823247959e+04 
       8.599860943624e-03       2.291072864336e+04 
       8.724559602926e-03       2.305958872818e+04 
       8.849316042466e-03       2.320486584494e+04 
       8.974128565875e-03       2.334659603685e+04 
       9.098995582617e-03       2.348482564978e+04 
       9.223915601555e-03       2.361959591674e+04 
       9.348887225023e-03       2.375094173153e+04 
       9.473909143333e-03       2.387890397963e+04 
       9.598980129706e-03       2.400353133190e+04 
       9.724099035576e-03       2.412484588353e+04 
       9.849264786243e-03       2.424290175293e+04 
       9.974476376846e-03       2.435773490378e+04 
       1.009973286863e-02       2.446937546981e+04 
       1.022503338547e-02       2.457787776340e+04 
       1.035037711069e-02       2.468326965371e+04 
       1.047576328402e-02       2.478558206060e+04 
       1.060119119888e-02       2.488486297772e+04 
       1.072666019978e-02       2.498114976399e+04 
       1.085216967991e-02       2.507446375621e+04 
       1.097771907894e-02       2.516486473942e+04 
       1.110330788092e-02       2.525237619137e+04 
       1.122893561237e-02       2.533703263309e+04 
       1.135460184048e-02       2.541887582349e+04 
       1.148030617143e-02       2.549793513013e+04 
       1.160604824887e-02       2.557425614688e+04 
       1.173182775242e-02       2.564786013348e+04 
       1.185764439638e-02       2.571878456012e+04 
       1.198349792843e-02       2.578706342678e+04 
       1.210938812850e-02       2.585273516403e+04 
       1.223531480768e-02       2.591583248173e+04 
       1.236127780719e-02       2.597637458685e+04 
       1.248727699749e-02       2.603442015759e+04 
       1.261331227736e-02       2.608997720905e+04 
       1.273938357316e-02       2.614309165076e+04 
       1.286549083801e-02       2.619379732815e+04 
       1.299163405118e-02       2.624211798470e+04 
       1.311781321738e-02       2.628809015141e+04 
       1.324402836623e-02       2.633174372603e+04 
       1.337027955170e-02       2.637309693384e+04 
       1.349656685160e-02       2.641220130865e+04 
       1.362289036716e-02       2.644906235571e+04 
       1.374925022257e-02       2.648371911387e+04 
       1.387564656466e-02       2.651620690644e+04 
       1.400207956250e-02       2.654654284559e+04 
       1.412854940714e-02       2.657475916751e+04 
       1.425505631131e-02       2.660088891293e+04 
       1.438160050918e-02       2.662495326820e+04 
       1.450818225617e-02       2.664698035844e+04 
       1.463480182871e-02       2.666700522954e+04 
       1.476145952416e-02       2.668504245779e+04 
       1.488815566058e-02       2.670112707028e+04 
       1.501489057672e-02       2.671528299173e+04 
       1.514166463185e-02       2.672753865812e+04 
       1.526847820578e-02       2.673792211169e+04 
       1.539533169875e-02       2.674644576034e+04 
       1.552222553145e-02       2.675314023877e+04 
       1.564916014502e-02       2.675802987243e+04 
       1.577613600109e-02       2.676117122534e+04 
       1.590315358178e-02       2.676253881666e+04 
       1.603021338980e-02       2.676218132299e+04 
       1.615731594853e-02       2.676012235043e+04 
       1.628446180211e-02       2.675640261197e+04 
       1.641165151557e-02       2.675100673240e+04 
       1.653888567495e-02       2.674398504265e+04 
       1.666616488747e-02       2.673536344275e+04 
       1.679348978171e-02       2.672515443234e+04 
       1.692086100778e-02       2.671337512513e+04 
       1.704827923753e-02       2.670007016164e+04 
       1.717574516477e-02       2.668524386294e+04 
       1.730325950554e-02       2.666891772293e+04 
       1.743082299832e-02       2.665114560930e+04 
       1.755843640434e-02       2.663189263562e+04 
       1.768610050784e-02       2.661123375222e+04 
       1.781381611639e-02       2.658916044540e+04 
       1.794158406122e-02       2.656571202231e+04 
       1.806940519756e-02       2.654090509474e+04 
       1.819728040496e-02       2.651476151014e+04 
       1.832521058771e-02       2.648727543380e+04 
       1.845319667518e-02       2.645850559535e+04 
       1.858123962229e-02       2.642845357099e+04 
       1.870934040986e-02       2.639715031418e+04 
       1.883750004510e-02       2.636463097196e+04 
       1.896571956207e-02       2.633086849673e+04 
       1.909400002211e-02       2.629592039063e+04 
       1.922234251438e-02       2.625980506607e+04 
       1.935074815635e-02       2.622252284523e+04 
       1.947921809435e-02       2.618411669050e+04 
       1.960775350410e-02       2.614460547883e+04 
       1.973635559129e-02       2.610397311080e+04 
       1.986502559215e-02       2.606228373262e+04 
       1.999376477410e-02       2.601950559010e+04 
       2.012257443634e-02       2.597573125196e+04 
       2.025145591054e-02       2.593089847461e+04 
       2.038041056146e-02       2.588507442040e+04 
       2.050943978770e-02       2.583827839958e+04 
       2.063854502239e-02       2.579052186789e+04 
       2.076772773392e-02       2.574181214968e+04 
       2.089698942675e-02       2.569219414030e+04 
       2.102633164215e-02       2.564168073694e+04 
       2.115575595902e-02       2.559020108799e+04 
       2.128526399478e-02       2.553789361372e+04 
       2.141485740618e-02       2.548472862148e+04 
       2.154453789022e-02       2.543070205147e+04 
       2.167430718506e-02       2.537587738254e+04 
       2.180416707100e-02       2.532025923441e+04 
       2.193411937143e-02       2.526381419960e+04 
       2.206416595385e-02       2.520661860035e+04 
       2.219430873092e-02       2.514863359571e+04 
       2.232454966154e-02       2.508991617852e+04 
       2.245489075195e-02       2.503049841456e+04 
       2.258533405688e-02       2.497035835606e+04 
       2.271588168074e-02       2.490952802466e+04 
       2.284653577881e-02       2.484794275579e+04 
       2.297729855853e-02       2.478582042213e+04 
       2.310817228079e-02       2.472299866111e+04 
       2.323915926125e-02       2.465949454504e+04 
       2.337026187174e-02       2.459540069592e+04 
       2.350148254167e-02       2.453071273085e+04 
       2.363282375951e-02       2.446538345769e+04 
       2.376428807431e-02       2.439950009200e+04 
       2.389587809726e-02       2.433306748253e+04 
       2.402759650330e-02       2.426609773023e+04 
       2.415944603280e-02       2.419856018537e+04 
       2.429142949330e-02       2.413051732296e+04 
       2.442354976126e-02       2.406193789544e+04 
       2.455580978391e-02       2.399293455710e+04 
       2.468821258116e-02       2.392338731769e+04 
       2.482076124757e-02       2.385336667745e+04 
       2.495345895435e-02       2.378295605886e+04 
       2.508630895149e-02       2.371200861715e+04 
       2.521931456991e-02       2.364062733246e+04 
       2.535247922371e-02       2.356893696983e+04 
       2.548580641249e-02       2.349676511171e+04 
       2.561929972376e-02       2.342419633484e+04 
       2.575296283539e-02       2.335125648595e+04 
       2.588679951822e-02       2.327795810405e+04 
       2.602081363871e-02       2.320426604311e+04 
       2.615500916165e-02       2.313028382508e+04 
       2.628939015308e-02       2.305593358538e+04 
       2.642396078319e-02       2.298124322909e+04 
       2.655872532941e-02       2.290625284824e+04 
       2.669368817957e-02       2.283101630254e+04 
       2.682885383517e-02       2.275539833260e+04 
       2.696422691483e-02       2.267952404999e+04 
       2.709981215777e-02       2.260332100840e+04 
       2.723561442751e-02       2.252698631411e+04 
       2.737163871567e-02       2.245034649343e+04 
       2.750789014590e-02       2.237347963761e+04 
       2.764437397797e-02       2.229632816939e+04 
       2.778109561207e-02       2.221901188631e+04 
       2.791806059317e-02       2.214145723102e+04 
       2.805527461563e-02       2.206379643041e+04 
       2.819274352800e-02       2.198581036544e+04 
       2.833047333793e-02       2.190767356538e+04 
       2.846847021736e-02       2.182936800796e+04 
       2.860674050786e-02       2.175088414818e+04 
       2.874529072623e-02       2.167222038179e+04 
       2.888412757030e-02       2.159348055339e+04 
       2.902325792497e-02       2.151455027510e+04 
       2.916268886854e-02       2.143553076834e+04 
       2.930242767921e-02       2.135633017091e+04 
       2.944248184197e-02       2.127700701164e+04 
       2.958285905574e-02       2.119763151906e+04 
       2.972356724076e-02       2.111812374047e+04 
       2.986461454636e-02       2.103855634101e+04 
       3.000600935908e-02       2.095885645915e+04 
       3.014776031110e-02       2.087906076903e+04 
       3.028987628910e-02       2.079922956219e+04 
       3.043236644343e-02       2.071929459192e+04 
       3.057524019780e-02       2.063933526744e+04 
       3.071850725934e-02       2.055924722422e+04 
       3.086217762918e-02       2.047924824210e+04 
       3.100626161341e-02       2.039905616090e+04 
       3.115076983473e-02       2.031884421681e+04 
       3.129571324449e-02       2.023867469222e+04 
       3.144110313540e-02       2.015844867791e+04 
       3.158695115479e-02       2.007823813778e+04 
       3.173326931861e-02       1.999799145303e+04 
       3.188007002602e-02       1.991770296255e+04 
       3.202736607473e-02       1.983742065189e+04 
       3.217517067717e-02       1.975710939320e+04 
       3.232349747744e-02       1.967683831332e+04 
       3.247236056905e-02       1.959663007229e+04 
       3.262177451377e-02       1.951632096749e+04 
       3.277175436123e-02       1.943614889733e+04 
       3.292231566978e-02       1.935597764028e+04 
       3.307347452830e-02       1.927573703877e+04 
       3.322524757924e-02       1.919555543687e+04 
       3.337765204299e-02       1.911542734838e+04 
       3.353070574345e-02       1.903535183716e+04 
       3.368442713515e-02       1.895533960460e+04 
       3.383883533184e-02       1.887529806938e+04 
       3.399395013675e-02       1.879534675463e+04 
       3.414979207451e-02       1.871535757979e+04 
       3.430638242505e-02       1.863556397814e+04 
       3.446374325938e-02       1.855573222634e+04 
       3.462189747762e-02       1.847591209831e+04 
       3.478086884924e-02       1.839620544606e+04 
       3.494068205579e-02       1.831655838330e+04 
       3.510136273624e-02       1.823697783600e+04 
       3.526293753527e-02       1.815737797074e+04 
       3.542543415443e-02       1.807794808788e+04 
       3.558888140678e-02       1.799853817665e+04 
       3.575330927493e-02       1.791917162111e+04 
       3.591874897296e-02       1.783985189409e+04 
       3.608523301249e-02       1.776069465403e+04 
       3.625279527315e-02       1.768150818448e+04 
       3.642147107789e-02       1.760235934091e+04 
       3.659129727355e-02       1.752335885044e+04 
       3.676231231704e-02       1.744435067477e+04 
       3.693455636766e-02       1.736540421979e+04 
       3.710807138611e-02       1.728658834944e+04 
       3.728290124070e-02       1.720774103291e+04 
       3.745909182154e-02       1.712899050292e+04 
       3.763669116322e-02       1.705031180908e+04 
       3.781574957691e-02       1.697169639674e+04 
       3.799631979273e-02       1.689316776849e+04 
       3.817845711330e-02       1.681459109328e+04 
       3.836221957953e-02       1.673609870243e+04 
       3.854766814992e-02       1.665764381494e+04 
       3.873486689461e-02       1.657923977545e+04 
       3.892388320563e-02       1.650087583740e+04 
       3.911478802516e-02       1.642258393073e+04 
       3.930765609335e-02       1.634425521132e+04 
       3.950256621807e-02       1.626596738702e+04 
       3.969960156871e-02       1.618767690649e+04 
       3.989884999665e-02       1.610942265420e+04 
       4.010040438546e-02       1.603120176991e+04 
       4.030436303393e-02       1.595291803900e+04 
       4.051083007594e-02       1.587467023395e+04 
       4.071991594114e-02       1.579643554724e+04 
       4.093173786152e-02       1.571808865534e+04 
       4.114642042920e-02       1.563979093740e+04 
       4.136409621172e-02       1.556144481616e+04 
       4.158490643213e-02       1.548300622888e+04 
       4.180900172196e-02       1.540454845069e+04 
       4.203654295656e-02       1.532600978533e+04 
       4.226770218379e-02       1.524742986050e+04 
       4.250266365845e-02       1.516869167502e+04 
       4.274162499724e-02       1.508982800617e+04 
       4.298479847103e-02       1.501092856896e+04 
       4.323241245419e-02       1.493184128302e+04 
       4.348471305404e-02       1.485259546346e+04 
       4.374196594750e-02       1.477320825390e+04 
       4.400445845656e-02       1.469363035643e+04 
       4.427250190020e-02       1.461382301518e+04 
       4.454643426706e-02       1.453378348964e+04 
       4.482662326158e-02       1.445348729818e+04 
       4.511346978655e-02       1.437290913630e+04 
       4.540741193724e-02       1.429207022362e+04 
       4.570892959762e-02       1.421085003279e+04 
       4.601854974768e-02       1.412924767673e+04 
       4.633685261409e-02       1.404729550319e+04 
       4.666447882487e-02       1.396485292112e+04 
       4.700213776448e-02       1.388190901375e+04 
       4.735061737027e-02       1.379850643914e+04 
       4.771079566713e-02       1.371445109309e+04 
       4.808365440785e-02       1.362975060588e+04 
       4.847029527579e-02       1.354439068703e+04 
       4.887195921988e-02       1.345818745049e+04 
       4.929004963614e-02       1.337117288054e+04 
       4.972616029350e-02       1.328318116460e+04 
       5.018210913605e-02       1.319411044804e+04 
       5.065997939168e-02       1.310382930202e+04 
       5.116216979445e-02       1.301223451948e+04 
       5.169145620055e-02       1.291903389126e+04 
       5.225106746003e-02       1.282414761354e+04 
       5.284477910021e-02       1.272723296417e+04 
       5.347702915686e-02       1.262801241414e+04 
       5.415306126340e-02       1.252606922887e+04 
       5.487910064565e-02       1.242088656226e+04 
       5.566256845959e-02       1.231185170254e+04 
       5.651233789428e-02       1.219804998093e+04 
       5.743902957315e-02       1.207841758026e+04 
       5.845533018972e-02       1.195146636267e+04 
       5.957629042112e-02       1.181509780992e+04 
