# Matter power spectrum P(k) at redshift z=0
# for k=1.0274e-05 to 14.0817 h/Mpc,
# number of wavenumbers equal to 736
#    1:k (h/Mpc)              2:P (Mpc/h)^3        
       1.027404210298e-05       5.276471665584e+01 
       2.288320984717e-05       1.143184965071e+02 
       3.553498657699e-05       1.748451232052e+02 
       4.826198878475e-05       2.349656669635e+02 
       6.109735106795e-05       2.950347388030e+02 
       7.407500929027e-05       3.553184976378e+02 
       8.722999244711e-05       4.160446750566e+02 
       1.005987269674e-04       4.774230181902e+02 
       1.142193572127e-04       5.396557722557e+02 
       1.281320859662e-04       6.029439904026e+02 
       1.423795387162e-04       6.674918997109e+02 
       1.570071555031e-04       7.335102740738e+02 
       1.720636139676e-04       8.012192983595e+02 
       1.876012869688e-04       8.708511720525e+02 
       2.036767376417e-04       9.426525869506e+02 
       2.203512539515e-04       1.016887181101e+03 
       2.376914235323e-04       1.093837990645e+03 
       2.557697477175e-04       1.173809925697e+03 
       2.746652909520e-04       1.257132265682e+03 
       2.944643579864e-04       1.344161132773e+03 
       3.152611860734e-04       1.435281886318e+03 
       3.371586325063e-04       1.530911335727e+03 
       3.602688289253e-04       1.631499657055e+03 
       3.847137626143e-04       1.737531778917e+03 
       4.106257314273e-04       1.849528045724e+03 
       4.381476032424e-04       1.968043827627e+03 
       4.674327937222e-04       2.093667680551e+03 
       4.986448592449e-04       2.227017679881e+03 
       5.319565878721e-04       2.368735410015e+03 
       5.675484642057e-04       2.519477126814e+03 
       6.056063893932e-04       2.679901755607e+03 
       6.463185617755e-04       2.850655336952e+03 
       6.898714729482e-04       3.032351996922e+03 
       7.364450523790e-04       3.225551756675e+03 
       7.862071002607e-04       3.430735945169e+03 
       8.393072741912e-04       3.648281711302e+03 
       8.958710221081e-04       3.878437309068e+03 
       9.559939546338e-04       4.121300583250e+03 
       1.019737194224e-03       4.376802778650e+03 
       1.087124201626e-03       4.644699949176e+03 
       1.158139453616e-03       4.924573178676e+03 
       1.232729144483e-03       5.215838124799e+03 
       1.310803844125e-03       5.517763310039e+03 
       1.392242817552e-03       5.829455307255e+03 
       1.476899540373e-03       6.150000846600e+03 
       1.564607861759e-03       6.478394422080e+03 
       1.655188274930e-03       6.813596156952e+03 
       1.748453837907e-03       7.154562167622e+03 
       1.844215413756e-03       7.500268039308e+03 
       1.942286037802e-03       7.849727362504e+03 
       2.042484344046e-03       8.202006133227e+03 
       2.144637079630e-03       8.556231969031e+03 
       2.248580800163e-03       8.911600392076e+03 
       2.354162872584e-03       9.267377027958e+03 
       2.461241922659e-03       9.622896834514e+03 
       2.569687858549e-03       9.977563050038e+03 
       2.679381586940e-03       1.033084281132e+04 
       2.790214519180e-03       1.068226520607e+04 
       2.902087945205e-03       1.103141356954e+04 
       3.014912334897e-03       1.137792243179e+04 
       3.128606610855e-03       1.172147345097e+04 
       3.243097423772e-03       1.206178940328e+04 
       3.358318451498e-03       1.239863170809e+04 
       3.474209735220e-03       1.273179042570e+04 
       3.590717060462e-03       1.306109078106e+04 
       3.707791386580e-03       1.338638033483e+04 
       3.825388325559e-03       1.370753396955e+04 
       3.943467669046e-03       1.402444103082e+04 
       4.061992961333e-03       1.433701385671e+04 
       4.180931115321e-03       1.464518048376e+04 
       4.300252068119e-03       1.494887948821e+04 
       4.419928472833e-03       1.524806600071e+04 
       4.539935423149e-03       1.554270134983e+04 
       4.660250207439e-03       1.583276693111e+04 
       4.780852089355e-03       1.611823349372e+04 
       4.901722112084e-03       1.639910620253e+04 
       5.022842923700e-03       1.667538880895e+04 
       5.144198621287e-03       1.694707408428e+04 
       5.265774611752e-03       1.721417743444e+04 
       5.387557487452e-03       1.747670833434e+04 
       5.509534914975e-03       1.773468183893e+04 
       5.631695535596e-03       1.798812478840e+04 
       5.754028876100e-03       1.823705364015e+04 
       5.876525268804e-03       1.848149840472e+04 
       5.999175779758e-03       1.872149100824e+04 
       6.121972144215e-03       1.895705955153e+04 
       6.244906708570e-03       1.918823080904e+04 
       6.367972378052e-03       1.941504631680e+04 
       6.491162569555e-03       1.963753119020e+04 
       6.614471169042e-03       1.985573167541e+04 
       6.737892493041e-03       2.006968437020e+04 
       6.861421253793e-03       2.027942175234e+04 
       6.985052527673e-03       2.048498658170e+04 
       7.108781726541e-03       2.068641856007e+04 
       7.232604571725e-03       2.088375188059e+04 
       7.356517070358e-03       2.107703479868e+04 
       7.480515493839e-03       2.126630882490e+04 
       7.604596358212e-03       2.145162083304e+04 
       7.728756406254e-03       2.163299471248e+04 
       7.852992591126e-03       2.181048865300e+04 
       7.977302061418e-03       2.198413844496e+04 
       8.101682147467e-03       2.215396805443e+04 
       8.226130348828e-03       2.232005024248e+04 
       8.350644322769e-03       2.248241537074e+04 
       8.475221873730e-03       2.264109500622e+04 
       8.599860943624e-03       2.279613744968e+04 
       8.724559602926e-03       2.294757325185e+04 
       8.849316042466e-03       2.309545316747e+04 
       8.974128565875e-03       2.323981135221e+04 
       9.098995582617e-03       2.338069228018e+04 
       9.223915601555e-03       2.351813557811e+04 
       9.348887225023e-03       2.365217469594e+04 
       9.473909143333e-03       2.378284905471e+04 
       9.598980129706e-03       2.391020601180e+04 
       9.724099035576e-03       2.403426642472e+04 
       9.849264786243e-03       2.415508305574e+04 
       9.974476376846e-03       2.427269047193e+04 
       1.009973286863e-02       2.438711736176e+04 
       1.022503338547e-02       2.449841640059e+04 
       1.035037711069e-02       2.460661383456e+04 
       1.047576328402e-02       2.471173887746e+04 
       1.060119119888e-02       2.481383770928e+04 
       1.072666019978e-02       2.491294601502e+04 
       1.085216967991e-02       2.500908349135e+04 
       1.097771907894e-02       2.510230834319e+04 
       1.110330788092e-02       2.519264275793e+04 
       1.122893561237e-02       2.528012006676e+04 
       1.135460184048e-02       2.536478108333e+04 
       1.148030617143e-02       2.544665443632e+04 
       1.160604824887e-02       2.552578484266e+04 
       1.173182775242e-02       2.560219317604e+04 
       1.185764439638e-02       2.567591624112e+04 
       1.198349792843e-02       2.574698737236e+04 
       1.210938812850e-02       2.581544428472e+04 
       1.223531480768e-02       2.588131851532e+04 
       1.236127780719e-02       2.594462838166e+04 
       1.248727699749e-02       2.600543081370e+04 
       1.261331227736e-02       2.606373241137e+04 
       1.273938357316e-02       2.611957768495e+04 
       1.286549083801e-02       2.617299798612e+04 
       1.299163405118e-02       2.622401564666e+04 
       1.311781321738e-02       2.627266583310e+04 
       1.324402836623e-02       2.631897694320e+04 
       1.337027955170e-02       2.636296903867e+04 
       1.349656685160e-02       2.640469353547e+04 
       1.362289036716e-02       2.644415556281e+04 
       1.374925022257e-02       2.648139465111e+04 
       1.387564656466e-02       2.651644485525e+04 
       1.400207956250e-02       2.654932498877e+04 
       1.412854940714e-02       2.658006511908e+04 
       1.425505631131e-02       2.660870056703e+04 
       1.438160050918e-02       2.663525225726e+04 
       1.450818225617e-02       2.665974750022e+04 
       1.463480182871e-02       2.668221932973e+04 
       1.476145952416e-02       2.670268064054e+04 
       1.488815566058e-02       2.672116260399e+04 
       1.501489057672e-02       2.673768865400e+04 
       1.514166463185e-02       2.675228799880e+04 
       1.526847820578e-02       2.676498859633e+04 
       1.539533169875e-02       2.677580276526e+04 
       1.552222553145e-02       2.678476167594e+04 
       1.564916014502e-02       2.679188865396e+04 
       1.577613600109e-02       2.679724001794e+04 
       1.590315358178e-02       2.680079105173e+04 
       1.603021338980e-02       2.680258979657e+04 
       1.615731594853e-02       2.680265845598e+04 
       1.628446180211e-02       2.680103870539e+04 
       1.641165151557e-02       2.679771580690e+04 
       1.653888567495e-02       2.679273722540e+04 
       1.666616488747e-02       2.678612974214e+04 
       1.679348978171e-02       2.677790719141e+04 
       1.692086100778e-02       2.676808538969e+04 
       1.704827923753e-02       2.675670773749e+04 
       1.717574516477e-02       2.674377908096e+04 
       1.730325950554e-02       2.672932118374e+04 
       1.743082299832e-02       2.671338859336e+04 
       1.755843640434e-02       2.669594376247e+04 
       1.768610050784e-02       2.667706324694e+04 
       1.781381611639e-02       2.665673887622e+04 
       1.794158406122e-02       2.663501020992e+04 
       1.806940519756e-02       2.661189229010e+04 
       1.819728040496e-02       2.658740713563e+04 
       1.832521058771e-02       2.656154928361e+04 
       1.845319667518e-02       2.653438322493e+04 
       1.858123962229e-02       2.650589378825e+04 
       1.870934040986e-02       2.647613039378e+04 
       1.883750004510e-02       2.644511634683e+04 
       1.896571956207e-02       2.641283088978e+04 
       1.909400002211e-02       2.637932874832e+04 
       1.922234251438e-02       2.634462897690e+04 
       1.935074815635e-02       2.630873575500e+04 
       1.947921809435e-02       2.627168434989e+04 
       1.960775350410e-02       2.623349851345e+04 
       1.973635559129e-02       2.619416341440e+04 
       1.986502559215e-02       2.615373753121e+04 
       1.999376477410e-02       2.611219647210e+04 
       2.012257443634e-02       2.606962804702e+04 
       2.025145591054e-02       2.602597276009e+04 
       2.038041056146e-02       2.598129663150e+04 
       2.050943978770e-02       2.593561753000e+04 
       2.063854502239e-02       2.588895049455e+04 
       2.076772773392e-02       2.584130028157e+04 
       2.089698942675e-02       2.579271383961e+04 
       2.102633164215e-02       2.574320202214e+04 
       2.115575595902e-02       2.569269667864e+04 
       2.128526399478e-02       2.564133141299e+04 
       2.141485740618e-02       2.558908170764e+04 
       2.154453789022e-02       2.553594311405e+04 
       2.167430718506e-02       2.548197687537e+04 
       2.180416707100e-02       2.542719104286e+04 
       2.193411937143e-02       2.537154910025e+04 
       2.206416595385e-02       2.531512926735e+04 
       2.219430873092e-02       2.525789152550e+04 
       2.232454966154e-02       2.519989488432e+04 
       2.245489075195e-02       2.514117286880e+04 
       2.258533405688e-02       2.508170036444e+04 
       2.271588168074e-02       2.502150900601e+04 
       2.284653577881e-02       2.496053880020e+04 
       2.297729855853e-02       2.489900256376e+04 
       2.310817228079e-02       2.483674399623e+04 
       2.323915926125e-02       2.477377501322e+04 
       2.337026187174e-02       2.471019113971e+04 
       2.350148254167e-02       2.464598702975e+04 
       2.363282375951e-02       2.458111691668e+04 
       2.376428807431e-02       2.451566848956e+04 
       2.389587809726e-02       2.444964458479e+04 
       2.402759650330e-02       2.438305906288e+04 
       2.415944603280e-02       2.431588168441e+04 
       2.429142949330e-02       2.424817414210e+04 
       2.442354976126e-02       2.417990709015e+04 
       2.455580978391e-02       2.411119236065e+04 
       2.468821258116e-02       2.404190885760e+04 
       2.482076124757e-02       2.397213004821e+04 
       2.495345895435e-02       2.390193771685e+04 
       2.508630895149e-02       2.383118503747e+04 
       2.521931456991e-02       2.375997600971e+04 
       2.535247922371e-02       2.368843533434e+04 
       2.548580641249e-02       2.361639128049e+04 
       2.561929972376e-02       2.354392784478e+04 
       2.575296283539e-02       2.347107117976e+04 
       2.588679951822e-02       2.339783472224e+04 
       2.602081363871e-02       2.332418338305e+04 
       2.615500916165e-02       2.325021934234e+04 
       2.628939015308e-02       2.317585736308e+04 
       2.642396078319e-02       2.310114541119e+04 
       2.655872532941e-02       2.302612161663e+04 
       2.669368817957e-02       2.295082053918e+04 
       2.682885383517e-02       2.287511824267e+04 
       2.696422691483e-02       2.279913967069e+04 
       2.709981215777e-02       2.272281409256e+04 
       2.723561442751e-02       2.264633424986e+04 
       2.737163871567e-02       2.256953159588e+04 
       2.750789014590e-02       2.249248370162e+04 
       2.764437397797e-02       2.241512986764e+04 
       2.778109561207e-02       2.233760043208e+04 
       2.791806059317e-02       2.225980001726e+04 
       2.805527461563e-02       2.218188106900e+04 
       2.819274352800e-02       2.210361959465e+04 
       2.833047333793e-02       2.202518937319e+04 
       2.846847021736e-02       2.194657146520e+04 
       2.860674050786e-02       2.186775886478e+04 
       2.874529072623e-02       2.178874559578e+04 
       2.888412757030e-02       2.170963929934e+04 
       2.902325792497e-02       2.163032723619e+04 
       2.916268886854e-02       2.155090818708e+04 
       2.930242767921e-02       2.147128995061e+04 
       2.944248184197e-02       2.139153252608e+04 
       2.958285905574e-02       2.131170667167e+04 
       2.972356724076e-02       2.123172979609e+04 
       2.986461454636e-02       2.115167819550e+04 
       3.000600935908e-02       2.107147868275e+04 
       3.014776031110e-02       2.099116432445e+04 
       3.028987628910e-02       2.091079960940e+04 
       3.043236644343e-02       2.083031631506e+04 
       3.057524019780e-02       2.074979089561e+04 
       3.071850725934e-02       2.066912287725e+04 
       3.086217762918e-02       2.058852573132e+04 
       3.100626161341e-02       2.050772112153e+04 
       3.115076983473e-02       2.042688061331e+04 
       3.129571324449e-02       2.034606645953e+04 
       3.144110313540e-02       2.026518138592e+04 
       3.158695115479e-02       2.018429536646e+04 
       3.173326931861e-02       2.010335851682e+04 
       3.188007002602e-02       2.002236371670e+04 
       3.202736607473e-02       1.994136128073e+04 
       3.217517067717e-02       1.986031328223e+04 
       3.232349747744e-02       1.977929179408e+04 
       3.247236056905e-02       1.969831558670e+04 
       3.262177451377e-02       1.961722492127e+04 
       3.277175436123e-02       1.953625699471e+04 
       3.292231566978e-02       1.945527265216e+04 
       3.307347452830e-02       1.937420496827e+04 
       3.322524757924e-02       1.929318195354e+04 
       3.337765204299e-02       1.921219692400e+04 
       3.353070574345e-02       1.913124933625e+04 
       3.368442713515e-02       1.905034571215e+04 
       3.383883533184e-02       1.896940340928e+04 
       3.399395013675e-02       1.888853375688e+04 
       3.414979207451e-02       1.880761134830e+04 
       3.430638242505e-02       1.872686854231e+04 
       3.446374325938e-02       1.864607217132e+04 
       3.462189747762e-02       1.856526958877e+04 
       3.478086884924e-02       1.848456752611e+04 
       3.494068205579e-02       1.840390837661e+04 
       3.510136273624e-02       1.832330039064e+04 
       3.526293753527e-02       1.824265563366e+04 
       3.542543415443e-02       1.816216411003e+04 
       3.558888140678e-02       1.808167673393e+04 
       3.575330927493e-02       1.800121700347e+04 
       3.591874897296e-02       1.792078885789e+04 
       3.608523301249e-02       1.784050002290e+04 
       3.625279527315e-02       1.776017033845e+04 
       3.642147107789e-02       1.767985686781e+04 
       3.659129727355e-02       1.759967187074e+04 
       3.676231231704e-02       1.751946866719e+04 
       3.693455636766e-02       1.743930375113e+04 
       3.710807138611e-02       1.735924434373e+04 
       3.728290124070e-02       1.727914918235e+04 
       3.745909182154e-02       1.719912408174e+04 
       3.763669116322e-02       1.711915056049e+04 
       3.781574957691e-02       1.703921938598e+04 
       3.799631979273e-02       1.695935470848e+04 
       3.817845711330e-02       1.687942012412e+04 
       3.836221957953e-02       1.679954702957e+04 
       3.854766814992e-02       1.671968513647e+04 
       3.873486689461e-02       1.663986068159e+04 
       3.892388320563e-02       1.656004832740e+04 
       3.911478802516e-02       1.648028212273e+04 
       3.930765609335e-02       1.640045437903e+04 
       3.950256621807e-02       1.632064369148e+04 
       3.969960156871e-02       1.624080065702e+04 
       3.989884999665e-02       1.616096702505e+04 
       4.010040438546e-02       1.608113942696e+04 
       4.030436303393e-02       1.600121860565e+04 
       4.051083007594e-02       1.592130265106e+04 
       4.071991594114e-02       1.584136802790e+04 
       4.093173786152e-02       1.576128795668e+04 
       4.114642042920e-02       1.568122290340e+04 
       4.136409621172e-02       1.560107376624e+04 
       4.158490643213e-02       1.552079437402e+04 
       4.180900172196e-02       1.544045690951e+04 
       4.203654295656e-02       1.535999738115e+04 
       4.226770218379e-02       1.527945325367e+04 
       4.250266365845e-02       1.519870809219e+04 
       4.274162499724e-02       1.511778884040e+04 
       4.298479847103e-02       1.503678099694e+04 
       4.323241245419e-02       1.495554249040e+04 
       4.348471305404e-02       1.487408645967e+04 
       4.374196594750e-02       1.479242889962e+04 
       4.400445845656e-02       1.471052192092e+04 
       4.427250190020e-02       1.462831878898e+04 
       4.454643426706e-02       1.454581540761e+04 
       4.482662326158e-02       1.446298294448e+04 
       4.511346978655e-02       1.437978932955e+04 
       4.540741193724e-02       1.429625255097e+04 
       4.570892959762e-02       1.421224438260e+04 
       4.601854974768e-02       1.412775797890e+04 
       4.633685261409e-02       1.404282154360e+04 
       4.666447882487e-02       1.395728281420e+04 
       4.700213776448e-02       1.387112348488e+04 
       4.735061737027e-02       1.378437298243e+04 
       4.771079566713e-02       1.369683592289e+04 
       4.808365440785e-02       1.360849952243e+04 
       4.847029527579e-02       1.351933358537e+04 
       4.887195921988e-02       1.342914341851e+04 
       4.929004963614e-02       1.333794208681e+04 
       4.972616029350e-02       1.324554763006e+04 
       5.018210913605e-02       1.315182385528e+04 
       5.065997939168e-02       1.305661853484e+04 
       5.116216979445e-02       1.295979445864e+04 
       5.169145620055e-02       1.286102405355e+04 
       5.225106746003e-02       1.276018334210e+04 
       5.284477910021e-02       1.265687934376e+04 
       5.347702915686e-02       1.255077546887e+04 
       5.415306126340e-02       1.244138744237e+04 
       5.487910064565e-02       1.232811053336e+04 
       5.566256845959e-02       1.221023440651e+04 
       5.651233789428e-02       1.208672982823e+04 
       5.743902957315e-02       1.195639110616e+04 
       5.845533018972e-02       1.181758454124e+04 
       5.957629042112e-02       1.166802533335e+04 
